2.2981,2.1287,1.3919,1.3579,1.25,1.4252,1.7139
2.2981,2.1277,1.3873,1.3579,1.25,1.4237,1.7139
2.2944,2.1229,1.3777,1.3531,1.2567,1.415,1.6945
2.2794,2.1165,1.3692,1.3449,1.2665,1.4026,1.6556
2.2638,2.1025,1.363,1.3513,1.2566,1.3791,1.6378
2.2563,2.0831,1.36,1.3684,1.2338,1.354,1.6302
2.2508,2.0296,1.3641,1.3808,1.2171,1.3423,1.6195
2.2391,1.9451,1.3701,1.3838,1.2139,1.3354,1.621
2.215,1.8684,1.373,1.3799,1.2203,1.3368,1.6298
2.1984,1.8224,1.3766,1.377,1.2249,1.3425,1.6654
2.1874,1.8015,1.3792,1.3734,1.2266,1.3419,1.7212
2.1714,1.7802,1.3796,1.3753,1.2261,1.3368,1.7663
2.1598,1.7824,1.3845,1.3828,1.2205,1.3281,1.79
2.1744,1.8196,1.3984,1.3759,1.2056,1.3119,1.8017
2.208,1.8727,1.4101,1.3566,1.1875,1.3097,1.803
2.237,1.9188,1.4157,1.336,1.1724,1.3228,1.8119
2.2637,1.9514,1.4198,1.3177,1.1633,1.3323,1.838
2.284,1.9761,1.4212,1.3044,1.1585,1.3329,1.8615
2.3051,2.0162,1.4223,1.298,1.1604,1.3253,1.8829
2.3312,2.0692,1.4275,1.2916,1.1674,1.3182,1.8997
2.3554,2.1116,1.4343,1.2803,1.1706,1.3146,1.9074
2.3809,2.1397,1.4256,1.2634,1.1711,1.312,1.9087
2.4141,2.1592,1.4088,1.2493,1.1715,1.3149,1.9129
2.4433,2.18,1.3996,1.2461,1.1857,1.3296,1.928
2.4688,2.199,1.3882,1.242,1.2227,1.3403,1.9517
2.494,2.2091,1.3587,1.2373,1.2562,1.3435,1.9743
2.5099,2.2049,1.3275,1.2488,1.2806,1.352,2.004
2.5054,2.1989,1.3228,1.296,1.3047,1.3629,2.0328
2.485,2.1846,1.3243,1.3556,1.3283,1.3753,2.0488
2.4476,2.1684,1.3191,1.4004,1.3576,1.41,2.0604
2.4098,2.1808,1.3185,1.4372,1.3961,1.4524,2.0779
2.3904,2.2005,1.3321,1.4682,1.4368,1.4751,2.0986
2.3653,2.2177,1.3404,1.4907,1.4566,1.4875,2.1098
2.3359,2.2386,1.3324,1.5071,1.4598,1.4979,2.1139
2.3228,2.2538,1.333,1.5232,1.4622,1.519,2.139
2.3216,2.2677,1.3443,1.5335,1.4696,1.5465,2.1803
2.318,2.2851,1.3633,1.5242,1.482,1.5678,2.1991
2.3153,2.3005,1.3874,1.5062,1.4939,1.5794,2.2006
2.3296,2.3099,1.4094,1.493,1.504,1.5878,2.1968
2.3561,2.3131,1.4269,1.4892,1.5043,1.5992,2.1872
2.3779,2.3081,1.4425,1.4921,1.4974,1.6139,2.1821
2.3723,2.2884,1.4538,1.4998,1.5036,1.6272,2.1674
2.3494,2.2598,1.4621,1.511,1.5246,1.6331,2.1366
2.3382,2.2361,1.4681,1.5136,1.5466,1.6387,2.11
2.3319,2.2068,1.4711,1.5099,1.5626,1.654,2.0896
2.318,2.1578,1.4803,1.5114,1.573,1.674,2.0789
2.3005,2.0976,1.4982,1.5181,1.5819,1.6772,2.0762
2.2811,2.0461,1.5153,1.523,1.5883,1.6643,2.0585
2.2669,2.0131,1.5331,1.5251,1.5917,1.6444,2.0286
2.2633,1.9912,1.5515,1.5322,1.5942,1.6245,2.0058
2.2452,1.9499,1.5688,1.5387,1.5919,1.61,1.9924
2.2175,1.8907,1.5801,1.5448,1.5877,1.5995,1.987
2.2052,1.8415,1.5844,1.5533,1.5872,1.5905,1.9852
2.1952,1.8153,1.5875,1.5541,1.5882,1.5879,1.985
2.1711,1.8036,1.5885,1.5464,1.5943,1.586,1.9901
2.1454,1.7974,1.5891,1.5489,1.5932,1.5752,1.9938
2.1216,1.7977,1.5897,1.5682,1.5706,1.5686,1.988
2.0991,1.7967,1.5953,1.5875,1.5443,1.5693,1.9838
2.0827,1.796,1.5994,1.591,1.5222,1.5658,1.9763
2.0749,1.7858,1.5971,1.5599,1.5061,1.5645,1.9633
2.0893,1.7688,1.5914,1.5128,1.4944,1.565,1.9538
2.1128,1.7501,1.5832,1.4769,1.4756,1.5381,1.9425
2.1014,1.7146,1.5813,1.4583,1.4482,1.4953,1.9195
2.0674,1.6886,1.5716,1.4523,1.4205,1.4627,1.8971
2.0427,1.6855,1.5521,1.4479,1.4004,1.431,1.8854
2.0236,1.6832,1.538,1.4447,1.3857,1.4017,1.8815
1.9999,1.6865,1.5234,1.4379,1.3702,1.3721,1.8545
1.975,1.6902,1.5085,1.4285,1.3492,1.344,1.8076
1.9579,1.6841,1.4932,1.4216,1.3339,1.3301,1.7696
1.9455,1.6796,1.4717,1.421,1.3261,1.3313,1.7381
1.9227,1.6864,1.4439,1.431,1.3187,1.3385,1.7215
1.9062,1.7141,1.4174,1.444,1.3084,1.3438,1.7182
1.9332,1.7578,1.3965,1.4578,1.2942,1.3396,1.7081
1.9772,1.7952,1.3797,1.4664,1.2681,1.3286,1.6775
2.0052,1.8258,1.3722,1.4684,1.2292,1.3189,1.6432
2.0185,1.8504,1.3714,1.4712,1.2008,1.3102,1.6169
2.0332,1.8672,1.3661,1.4719,1.2017,1.2955,1.5977
2.0375,1.8794,1.3494,1.471,1.2182,1.2763,1.5724
2.0252,1.8883,1.3224,1.4703,1.2285,1.2623,1.5427
2.0163,1.9035,1.2941,1.4712,1.236,1.2538,1.5225
2.0043,1.9286,1.2665,1.4776,1.2415,1.2511,1.5297
1.9903,1.9532,1.241,1.4822,1.2438,1.2574,1.5516
1.98,1.9681,1.215,1.4814,1.2455,1.2687,1.5569
1.9726,1.9788,1.1906,1.4807,1.245,1.277,1.566
1.9671,1.9951,1.1746,1.4803,1.2412,1.2846,1.582
1.9675,2.0016,1.1649,1.4799,1.2501,1.2918,1.5911
1.9876,1.9969,1.1597,1.4782,1.2698,1.2986,1.5897
2.0169,1.9881,1.154,1.4756,1.2966,1.3052,1.582
2.0372,1.9806,1.1499,1.4692,1.3286,1.3178,1.5869
2.051,1.9805,1.1431,1.4603,1.3503,1.3395,1.6012
2.0834,1.9805,1.1324,1.4522,1.3646,1.3642,1.5996
2.1277,1.9794,1.1063,1.4449,1.3705,1.3867,1.5864
2.1416,1.9775,1.0752,1.441,1.3748,1.403,1.5927
2.1351,1.9751,1.059,1.4352,1.384,1.4164,1.6131
2.145,1.97,1.0472,1.4188,1.3876,1.4262,1.6292
2.1678,1.945,1.0467,1.3975,1.3903,1.4333,1.637
2.1816,1.8992,1.0564,1.374,1.3968,1.4414,1.6377
2.1897,1.8599,1.0655,1.3503,1.4015,1.4487,1.6329
2.1966,1.8408,1.0701,1.3331,1.4035,1.4497,1.6281
2.2016,1.8363,1.0655,1.3206,1.4034,1.446,1.6286
2.2052,1.8365,1.0621,1.3098,1.3987,1.4433,1.6302
2.205,1.832,1.0825,1.2935,1.3923,1.4369,1.6365
2.199,1.8299,1.121,1.2695,1.3891,1.4231,1.6412
2.1798,1.8151,1.156,1.2468,1.3868,1.4085,1.6367
2.1271,1.7749,1.1832,1.2248,1.3852,1.3932,1.6309
2.0632,1.7355,1.2047,1.2052,1.3824,1.3757,1.6293
2.0166,1.7029,1.2153,1.1927,1.3773,1.3613,1.6409
1.986,1.6752,1.2196,1.1907,1.372,1.3509,1.6619
1.9853,1.6615,1.2295,1.2034,1.3552,1.3368,1.6822
2.0049,1.6619,1.2418,1.2143,1.33,1.3216,1.7113
2.0224,1.6698,1.2651,1.2171,1.3262,1.3171,1.7431
2.0381,1.6678,1.3098,1.2243,1.3379,1.3186,1.7698
2.0486,1.6549,1.3558,1.2347,1.3464,1.3182,1.7749
2.0562,1.7012,1.3892,1.2472,1.3526,1.3162,1.762
2.0688,1.7949,1.415,1.2612,1.3556,1.3148,1.7587
2.0719,1.8724,1.4353,1.2649,1.3624,1.3138,1.7501
2.0597,1.9544,1.4486,1.2625,1.3794,1.313,1.7341
2.0424,2.0356,1.4568,1.2625,1.3903,1.3059,1.7286
2.0191,2.0985,1.4629,1.2642,1.3845,1.2991,1.7295
1.9955,2.1443,1.4798,1.2585,1.3611,1.2974,1.7252
1.9751,2.1721,1.5086,1.2441,1.3292,1.2861,1.7057
1.9558,2.1923,1.5323,1.2336,1.306,1.2642,1.6863
1.9122,2.2108,1.5535,1.2294,1.2908,1.2375,1.68
1.8546,2.228,1.5742,1.235,1.2847,1.2069,1.7142
1.8213,2.247,1.5854,1.2458,1.2786,1.177,1.7587
1.8067,2.2618,1.5882,1.2536,1.2657,1.1533,1.773
1.7862,2.2698,1.5849,1.2594,1.2546,1.1436,1.7834
1.7604,2.2839,1.5744,1.2652,1.2412,1.1442,1.7922
1.744,2.3095,1.5612,1.2728,1.2262,1.1427,1.8032
1.7296,2.3326,1.5502,1.2783,1.2134,1.1453,1.8159
1.7277,2.3396,1.5436,1.2806,1.2042,1.1509,1.8228
1.7362,2.3347,1.5388,1.284,1.1992,1.1531,1.8244
1.7424,2.3321,1.5296,1.2881,1.1956,1.1492,1.8243
1.7469,2.3375,1.5055,1.291,1.1929,1.1388,1.8185
1.7596,2.3368,1.47,1.2916,1.1963,1.1274,1.8095
1.7783,2.3291,1.4396,1.2853,1.2023,1.1229,1.8029
1.7931,2.3271,1.422,1.2757,1.2066,1.1254,1.7982
1.8141,2.3329,1.4199,1.2737,1.2265,1.129,1.804
1.8484,2.3407,1.4243,1.2773,1.2558,1.1354,1.8118
1.8884,2.3491,1.4275,1.2749,1.2724,1.1418,1.8287
1.8964,2.3544,1.4298,1.263,1.2796,1.1484,1.8546
1.871,2.351,1.4271,1.2474,1.2897,1.1603,1.8612
1.8477,2.3458,1.4064,1.2478,1.2887,1.1743,1.8604
1.8272,2.3429,1.3619,1.2568,1.2799,1.1845,1.8598
1.8099,2.3344,1.3141,1.2532,1.2929,1.192,1.8594
1.7948,2.2725,1.2863,1.2455,1.3152,1.1902,1.8625
1.7765,2.1757,1.2713,1.2398,1.3314,1.1836,1.8613
1.7644,2.0929,1.2569,1.2425,1.3385,1.186,1.8616
1.7605,2.0042,1.2465,1.2496,1.3326,1.193,1.8653
1.7672,1.9302,1.2388,1.2514,1.3169,1.1982,1.8633
1.7815,1.9101,1.2315,1.2493,1.3004,1.1966,1.8585
1.8089,1.9353,1.2172,1.2461,1.2901,1.1971,1.8728
1.8626,1.9686,1.1978,1.2454,1.2842,1.1993,1.902
1.9197,1.9876,1.1836,1.2467,1.2817,1.1939,1.9189
1.9664,2.0056,1.1677,1.2526,1.2798,1.1934,1.9259
2.0094,2.0319,1.1504,1.2552,1.2716,1.1967,1.8895
2.0418,2.0522,1.1434,1.2487,1.2606,1.1991,1.8229
2.0583,2.0629,1.1513,1.2422,1.2611,1.2077,1.7769
2.0643,2.0697,1.1624,1.2322,1.2664,1.214,1.7447
2.0615,2.0685,1.1741,1.2249,1.2687,1.2117,1.7213
2.0553,2.0625,1.1896,1.23,1.2687,1.21,1.7042
2.0518,2.0581,1.2076,1.2533,1.2736,1.2105,1.6904
2.0575,2.07,1.2308,1.2848,1.2885,1.2109,1.6892
2.0678,2.0929,1.2542,1.3062,1.3026,1.2112,1.6984
2.0773,2.1056,1.2776,1.3437,1.316,1.2114,1.71
2.0902,2.1236,1.3009,1.3959,1.3305,1.2115,1.7244
2.1027,2.1494,1.3179,1.4367,1.3363,1.2134,1.735
2.1087,2.1719,1.3334,1.4664,1.3421,1.2112,1.7415
2.1131,2.1912,1.3493,1.4867,1.3571,1.2025,1.745
2.1143,2.1976,1.3609,1.4973,1.3602,1.1997,1.7402
2.1102,2.1985,1.3693,1.4994,1.3564,1.2165,1.7268
2.1229,2.2225,1.3755,1.4982,1.3645,1.2547,1.6935
2.1508,2.2558,1.3799,1.4944,1.3735,1.295,1.6494
2.1749,2.2755,1.3877,1.4959,1.3739,1.3197,1.6158
2.2009,2.2862,1.3994,1.4897,1.3741,1.3285,1.5843
2.2263,2.2913,1.4108,1.4722,1.379,1.3302,1.5557
2.2576,2.3023,1.425,1.4594,1.3747,1.3376,1.5291
2.2939,2.3202,1.4397,1.4501,1.3701,1.3554,1.5024
2.3204,2.3351,1.456,1.4434,1.3729,1.3728,1.4858
2.337,2.345,1.4736,1.4339,1.3766,1.3795,1.4738
2.3508,2.3478,1.485,1.424,1.3792,1.3783,1.4621
2.3609,2.3379,1.4919,1.4184,1.3796,1.3759,1.455
2.3557,2.3032,1.5011,1.4157,1.3844,1.3741,1.4499
2.3297,2.2426,1.5078,1.4108,1.3925,1.3681,1.4209
2.2849,2.1872,1.5042,1.4026,1.3969,1.359,1.3876
2.2395,2.1551,1.4974,1.3966,1.3971,1.354,1.3764
2.2024,2.1359,1.4909,1.3923,1.3957,1.3471,1.3666
2.1641,2.1167,1.4905,1.3892,1.3962,1.3373,1.3579
2.129,2.0986,1.4917,1.3929,1.3981,1.335,1.35
2.1076,2.0865,1.4824,1.4017,1.3948,1.338,1.3426
2.0951,2.0777,1.4757,1.4125,1.3895,1.3387,1.3723
2.087,2.0681,1.4836,1.4204,1.3855,1.3392,1.4277
2.0821,2.0652,1.5006,1.4156,1.3811,1.3411,1.4626
2.0867,2.0734,1.5115,1.3983,1.3732,1.3377,1.4839
2.091,2.0753,1.5084,1.3778,1.3579,1.3368,1.4881
2.0912,2.0736,1.5209,1.3645,1.3436,1.3472,1.4842
2.0923,2.0754,1.5452,1.3289,1.3298,1.3593,1.4813
2.087,2.06,1.5576,1.2735,1.3132,1.3697,1.4749
2.0707,2.0362,1.5719,1.2313,1.2977,1.3788,1.4703
2.0494,2.0178,1.5837,1.2024,1.2778,1.3899,1.4712
2.0391,1.9968,1.5843,1.1814,1.2564,1.4039,1.4886
2.0327,1.9771,1.5753,1.1642,1.2408,1.4096,1.5097
2.0141,1.9617,1.5633,1.1591,1.2294,1.3937,1.525
1.9666,1.9261,1.5586,1.1698,1.2212,1.3597,1.5703
1.9041,1.8771,1.5552,1.1865,1.2169,1.3316,1.6369
1.855,1.8426,1.5444,1.1933,1.2155,1.3211,1.6936
1.8078,1.8175,1.5309,1.1983,1.2074,1.3183,1.7394
1.762,1.7991,1.5183,1.2221,1.1943,1.3211,1.7728
1.7126,1.7759,1.5018,1.2574,1.1773,1.3216,1.7983
1.6605,1.7491,1.4795,1.2878,1.1515,1.3088,1.818
1.6334,1.7345,1.4587,1.3099,1.1268,1.2995,1.8323
1.6349,1.7289,1.4665,1.3245,1.1069,1.2977,1.8428
1.636,1.7248,1.4949,1.332,1.0923,1.2948,1.8504
1.633,1.7316,1.5156,1.3358,1.0857,1.2927,1.8593
1.6373,1.7414,1.5252,1.3387,1.0768,1.2895,1.8658
1.6404,1.7437,1.5268,1.3392,1.0643,1.2838,1.8683
1.6388,1.7454,1.5279,1.3379,1.0573,1.278,1.8656
1.6389,1.7418,1.5342,1.3355,1.0562,1.2787,1.8578
1.648,1.7241,1.5456,1.3399,1.0574,1.2891,1.8568
1.6683,1.7011,1.5553,1.3525,1.0583,1.303,1.864
1.6965,1.6944,1.5623,1.357,1.0569,1.31,1.8726
1.756,1.7094,1.5687,1.3541,1.0519,1.3182,1.9417
1.8349,1.7312,1.5707,1.3456,1.0522,1.3336,2.0325
1.9004,1.7483,1.557,1.3313,1.0604,1.3464,2.0848
1.9574,1.741,1.5315,1.3209,1.076,1.3557,2.1316
1.9948,1.7108,1.5085,1.31,1.0949,1.367,2.1693
2.0088,1.6728,1.4976,1.2971,1.1141,1.3737,2.2006
2.0106,1.6411,1.4728,1.2877,1.1318,1.3678,2.2206
2.012,1.6261,1.4321,1.2825,1.1429,1.3588,2.2351
2.0129,1.6153,1.4072,1.282,1.1509,1.3522,2.2476
2.0137,1.6006,1.3874,1.2883,1.1639,1.3522,2.2557
2.0225,1.5858,1.3667,1.2977,1.1822,1.3521,2.2589
2.0289,1.5871,1.3516,1.3061,1.1919,1.3474,2.2507
2.0263,1.5987,1.3406,1.3138,1.1938,1.3439,2.2372
2.0255,1.6135,1.3325,1.313,1.1898,1.3414,2.2273
2.0217,1.6269,1.3346,1.3059,1.1759,1.3347,2.195
2.0242,1.643,1.356,1.3008,1.1602,1.3201,2.142
2.0343,1.6659,1.3822,1.297,1.1488,1.2993,2.0992
2.0508,1.6839,1.4012,1.2893,1.1404,1.2773,2.0723
2.0759,1.7066,1.4166,1.2626,1.1285,1.2596,2.06
2.0942,1.7315,1.4404,1.2214,1.116,1.2535,2.0532
2.1036,1.7449,1.4746,1.1856,1.1089,1.2704,2.0482
2.1104,1.7571,1.4994,1.1596,1.1094,1.2973,2.0414
2.1103,1.7718,1.4919,1.1482,1.1174,1.3229,2.0406
2.1286,1.779,1.4663,1.1494,1.1305,1.3492,2.0633
2.1578,1.7889,1.4506,1.152,1.1438,1.3698,2.0909
2.1723,1.8055,1.4422,1.1594,1.1516,1.3907,2.1071
2.183,1.8175,1.442,1.1701,1.1555,1.4118,2.1179
2.2038,1.8217,1.4506,1.178,1.1546,1.4384,2.1218
2.2303,1.8315,1.4569,1.1854,1.1577,1.469,2.1217
2.2441,1.8523,1.4571,1.1836,1.1706,1.4981,2.1186
2.2428,1.8762,1.4573,1.1733,1.1853,1.5299,2.1092
2.2333,1.8903,1.4574,1.173,1.1977,1.557,2.0983
2.1896,1.8815,1.456,1.1783,1.2085,1.5661,2.0145
2.1295,1.874,1.4861,1.1873,1.2094,1.5621,1.8818
2.0846,1.8765,1.5404,1.2077,1.2083,1.5591,1.778
2.0411,1.8947,1.5788,1.3312,1.2075,1.5556,1.6896
2.0083,1.9264,1.6166,1.5968,1.1998,1.5461,1.6178
2.0005,1.966,1.6552,1.8914,1.2012,1.5336,1.5712
2.0077,2.0051,1.6834,2.1398,1.211,1.5245,1.5601
2.013,2.0316,1.7051,2.326,1.2165,1.5178,1.5591
2.02,2.058,1.7221,2.5056,1.2255,1.5116,1.5596
2.025,2.0899,1.7345,2.6846,1.2389,1.5013,1.5859
2.0235,2.121,1.7471,2.8203,1.247,1.4938,1.6244
2.1072,2.1349,1.7599,2.9231,1.2512,1.4926,1.6512
2.2645,2.1411,1.7796,3.002,1.2592,1.4932,1.6743
2.3862,2.1496,1.8077,3.0621,1.27,1.495,1.6912
2.4819,2.1547,1.8213,3.1066,1.2827,1.4964,1.7047
2.5577,2.1496,1.829,3.1545,1.3015,1.4974,1.7194
2.613,2.1526,1.8526,3.2106,1.3245,1.5023,1.7265
2.6463,2.1771,1.8786,3.2621,1.3518,1.5114,1.7231
2.6729,2.195,1.8965,3.3199,1.3777,1.5153,1.7118
2.7022,2.2004,1.9041,3.4052,1.3965,1.5083,1.6998
2.7357,2.2034,1.9007,3.4932,1.4102,1.484,1.7011
2.7653,2.2113,1.9442,3.5745,1.4202,1.4482,1.7167
2.7809,2.2265,2.0253,3.6534,1.4388,1.4125,1.7269
2.7731,2.2477,2.1064,3.7108,1.4596,1.3817,1.7131
2.7481,2.2595,2.1943,3.7548,1.472,1.3657,1.6892
2.7322,2.2707,2.278,3.8853,1.4934,1.354,1.6718
2.7262,2.3008,2.3484,4.1211,1.5212,1.3407,1.6629
2.713,2.3333,2.4062,4.3439,1.5631,1.3174,1.6617
2.6915,2.3526,2.4583,4.5161,1.6138,1.2939,1.6608
2.6759,2.3569,2.4963,4.647,1.6471,1.2967,1.6785
2.6677,2.35,2.5239,4.7546,1.6677,1.3102,1.7099
2.6649,2.3451,2.544,4.8415,1.6815,1.32,1.7339
2.6661,2.3487,2.566,4.9134,1.6903,1.3256,1.7538
2.6701,2.3514,2.572,4.9848,1.6967,1.3264,1.7647
2.7005,2.3542,2.5617,5.0503,1.6964,1.3255,1.7667
2.7681,2.3425,2.5642,5.0732,1.6911,1.3311,1.767
2.8658,2.3183,2.5668,5.0321,1.6886,1.3414,1.7778
2.9675,2.2853,2.5719,4.9693,1.6777,1.5059,1.7962
3.0416,2.2668,2.5847,4.9217,1.6796,1.8442,1.8175
3.1241,2.2844,2.6947,4.892,1.7117,2.2176,1.8774
3.2218,2.3355,2.9038,4.872,1.7593,2.5548,1.9545
3.3076,2.4132,3.112,4.9466,1.8295,2.8095,1.9926
3.3942,2.4835,3.2987,5.1513,1.9037,3.0391,2.0143
3.4155,2.5718,3.4458,5.458,2.0036,3.2604,2.0423
3.3751,2.6723,3.5574,5.7793,2.1185,3.4662,2.0628
3.3496,2.7456,3.6387,6.015,2.2066,3.642,2.0826
3.3304,2.8018,3.7173,6.1969,2.282,3.7721,2.105
3.3131,2.9112,3.7988,6.357,2.3454,3.8684,2.1223
3.2992,3.0686,3.8587,6.4883,2.3933,3.9386,2.1388
3.3138,3.1923,3.9003,6.5788,2.4231,3.9938,2.1575
3.3429,3.2789,3.9326,6.6346,2.4423,4.0397,2.1751
3.3616,3.3468,3.9541,6.6536,2.463,4.0766,2.1916
3.3972,3.4016,3.9718,6.6545,2.484,4.1136,2.1998
3.4478,3.4319,3.9632,6.6452,2.5026,4.1659,2.2096
3.4877,3.4425,3.9354,6.6463,2.5136,4.2511,2.228
3.5244,3.4722,3.9255,6.8077,2.5347,4.3647,2.2377
3.5621,3.516,3.92,7.0877,2.5696,4.4693,2.2439
3.5897,3.5514,3.9371,7.4219,2.6256,4.5807,2.2549
3.6109,3.5865,3.9799,7.759,2.6992,4.7072,2.2638
3.6292,3.6229,4.0674,8.0007,2.7462,4.8356,2.2986
3.642,3.6828,4.2197,8.227,2.7752,4.9713,2.3516
3.6508,3.7609,4.3883,8.4516,2.8175,5.0813,2.3944
3.66,3.83,4.5343,8.6365,2.8656,5.1555,2.4332
3.6679,3.8799,4.6492,8.7826,2.9035,5.2115,2.4639
3.6719,3.912,4.7359,8.8945,2.9339,5.2653,2.4913
3.672,3.9316,4.7978,8.9648,2.9561,5.3159,2.517
3.6532,3.9411,4.8438,9.0087,2.9729,5.3542,2.539
3.6091,3.9497,4.8725,9.0373,2.9859,5.3822,2.5551
3.537,3.9585,4.8896,9.0525,2.9947,5.4122,2.5724
3.4512,3.9698,4.8986,9.0561,3.0025,5.39,2.5907
3.386,3.9694,4.9091,9.0521,3.0017,5.2897,2.5909
3.3111,3.9476,4.8631,9.0476,2.9863,5.1457,2.5475
3.2152,3.9078,4.7458,9.0363,2.9567,5.0075,2.5065
3.1418,3.8773,4.6129,9.0262,2.9112,4.9431,2.4979
3.0674,3.8766,4.5774,8.9897,2.8682,4.9692,2.4874
2.9897,3.8571,4.6332,8.8798,2.8029,5.0193,2.4797
2.9238,3.8335,4.6821,8.7549,2.7189,5.0219,2.4851
2.8832,3.8431,4.7435,8.6777,2.6535,5.0045,2.4917
2.9016,3.876,4.7904,8.6244,2.6075,4.9952,2.5023
2.9437,3.8895,4.813,8.5571,2.5732,4.9905,2.5193
3.0045,3.8962,4.8444,8.4888,2.5413,4.9859,2.5308
3.0578,3.9317,4.8845,8.4516,2.525,4.9842,2.5433
3.0692,3.964,4.9159,8.4374,2.5224,4.9847,2.5566
3.0693,3.9848,4.9391,8.4268,2.5189,4.982,2.5662
3.0348,3.9979,4.9531,8.4193,2.5154,4.9732,2.5757
2.9773,4.0085,4.9862,8.4171,2.5086,4.9531,2.5793
2.9354,4.0209,5.0346,8.4105,2.496,4.9016,2.5737
2.8926,4.008,5.0595,8.2787,2.4682,4.8134,2.568
2.8461,3.9719,5.069,8.0395,2.4366,4.7264,2.5613
2.8275,3.9334,5.0487,7.6532,2.3747,4.6281,2.5531
2.8285,3.887,5.005,7.1704,2.2803,4.5108,2.5496
2.8255,3.8395,4.9166,6.806,2.2208,4.386,2.5182
2.824,3.7715,4.7825,6.4764,2.1847,4.2443,2.4676
2.823,3.6954,4.6472,6.1382,2.1275,4.1174,2.4196
2.8214,3.6368,4.5397,5.8489,2.0601,4.0227,2.3735
2.8263,3.5918,4.4675,5.6124,2.0166,3.9481,2.34
2.8511,3.5805,4.409,5.4269,1.9904,3.8748,2.3079
2.8816,3.5926,4.3653,5.2952,1.9725,3.8076,2.2808
2.8944,3.6014,4.331,5.1954,1.9594,3.7586,2.262
2.8972,3.6113,4.3055,5.1205,1.9521,3.7206,2.2502
2.9108,3.6568,4.2944,5.078,1.9511,3.678,2.2269
2.93,3.7253,4.3137,5.0875,1.9482,3.6297,2.185
2.9362,3.7768,4.3414,5.1231,1.9395,3.5841,2.1463
2.9456,3.8165,4.3688,5.2008,1.9299,3.5398,2.1223
2.9611,3.846,4.4091,5.3042,1.9228,3.4925,2.0854
2.9595,3.8493,4.468,5.269,1.9177,3.3936,2.0361
2.9497,3.8251,4.4395,5.1475,1.914,3.1166,1.9969
2.9448,3.7997,4.3334,5.0452,1.9112,2.7598,1.9557
2.9404,3.7607,4.2448,4.9411,1.9126,2.4964,1.907
2.921,3.6971,4.142,4.8399,1.9136,2.3058,1.8582
2.8524,3.6163,4.0452,4.7519,1.8937,2.1608,1.7983
2.761,3.5159,3.9598,4.6943,1.8607,2.0493,1.7393
2.6475,3.3662,3.8652,4.6547,1.8355,1.9716,1.6977
2.5165,3.1894,3.7709,4.603,1.811,1.9039,1.6565
2.4181,3.0514,3.6979,4.545,1.7871,1.8385,1.6238
2.38,2.9516,3.6454,4.5051,1.7697,1.8008,1.5999
2.3822,2.8789,3.609,4.4794,1.7533,1.7809,1.5742
2.3767,2.8307,3.5439,4.4641,1.7426,1.7433,1.5395
2.3672,2.794,3.4543,4.4591,1.7493,1.6966,1.5069
2.3603,2.7664,3.3769,4.4463,1.7603,1.6626,1.4862
2.3643,2.7527,3.3166,4.426,1.7729,1.6323,1.4755
2.3533,2.7434,3.2787,4.4023,1.7938,1.5977,1.4692
2.328,2.7504,3.2491,4.3952,1.8158,1.5612,1.4542
2.3217,2.7753,3.2355,4.4397,1.8214,1.5165,1.4388
2.3272,2.795,3.2133,4.5516,1.8116,1.4622,1.4245
2.3339,2.7957,3.1784,4.6898,1.8033,1.413,1.3967
2.3315,2.7825,3.131,4.7992,1.8054,1.382,1.3585
2.3149,2.7729,3.071,4.8819,1.8058,1.3722,1.3257
2.2799,2.7402,3.0244,4.9367,1.8139,1.376,1.3034
2.2428,2.6893,2.9853,4.9799,1.8417,1.3788,1.2837
2.2207,2.653,2.9539,5.0242,1.8663,1.3808,1.2694
2.2056,2.6323,2.9332,5.0757,1.8908,1.4,1.2692
2.1701,2.5672,2.9276,5.1198,1.9225,1.4229,1.2756
2.1186,2.4638,2.9001,5.1185,1.9692,1.4352,1.282
2.0884,2.3886,2.8477,5.1006,2.0263,1.45,1.285
2.0577,2.3337,2.7785,5.0709,2.0794,1.4678,1.2805
2.0182,2.3089,2.6891,5.0186,2.1229,1.4863,1.2671
1.9883,2.2918,2.5831,4.9831,2.1479,1.5053,1.2521
1.9709,2.2876,2.5163,4.9589,2.1698,1.5191,1.2412
1.9691,2.3139,2.4945,4.9261,2.1972,1.5278,1.2332
1.9733,2.3411,2.4683,4.8929,2.2144,1.5328,1.2257
1.973,2.3688,2.4518,4.8679,2.2459,1.5351,1.2184
1.9739,2.3959,2.457,4.8474,2.2907,1.5367,1.2284
1.9944,2.4095,2.4829,4.8303,2.3242,1.5486,1.2459
2.0289,2.4099,2.5125,4.8156,2.3486,1.5641,1.2537
2.0667,2.4145,2.5398,4.8323,2.3699,1.566,1.2784
2.106,2.4231,2.5613,4.8719,2.3872,1.5633,1.3107
2.102,2.4259,2.5794,4.9007,2.3945,1.5559,1.3416
2.0636,2.4315,2.5902,4.9217,2.3963,1.5421,1.3746
2.0324,2.45,2.6153,4.9332,2.3941,1.5307,1.4015
2.0233,2.4737,2.6534,4.9273,2.396,1.5224,1.4324
2.0337,2.4909,2.6804,4.932,2.4061,1.5177,1.4673
2.0361,2.5035,2.6931,4.9513,2.4029,1.5171,1.4942
2.0316,2.5126,2.6953,4.9649,2.3845,1.5124,1.5083
2.0272,2.4986,2.6954,4.9585,2.3729,1.5076,1.5382
2.0155,2.4633,2.6946,4.8871,2.3663,1.5098,1.5907
2.0038,2.4402,2.6845,4.7408,2.3633,1.5127,1.6388
2.0006,2.4331,2.6731,4.5995,2.3691,1.5163,1.6738
2.0015,2.4306,2.6737,4.5184,2.3689,1.5146,1.6993
2.0043,2.4261,2.6764,4.4693,2.3748,1.5035,1.7227
1.9966,2.4229,2.6901,4.4335,2.3792,1.4867,1.7615
1.9825,2.4435,2.7238,4.4074,2.3788,1.47,1.8101
1.9722,2.4789,2.7626,4.3849,2.3884,1.4518,1.8455
1.9733,2.4921,2.7939,4.3476,2.3865,1.4198,1.8647
1.991,2.4891,2.7978,4.3005,2.3698,1.3886,1.8742
2.0213,2.487,2.7871,4.2636,2.3438,1.3707,1.8845
2.0474,2.4828,2.787,4.2321,2.3107,1.3529,1.9008
2.0625,2.4772,2.7915,4.1701,2.275,1.3333,1.9202
2.0824,2.4518,2.797,4.1099,2.2529,1.3106,1.9376
2.1048,2.4192,2.801,4.0854,2.2445,1.2873,1.9503
2.1132,2.3832,2.7782,4.1057,2.2469,1.296,1.9585
2.1032,2.3288,2.7485,4.1858,2.2543,1.3412,1.9633
2.0888,2.2794,2.7372,4.2809,2.2569,1.3885,1.9669
2.0944,2.2344,2.7275,4.3697,2.2344,1.4202,1.9695
2.1107,2.1895,2.7043,4.4418,2.1936,1.4347,1.9788
2.1074,2.1443,2.6762,4.5015,2.1669,1.4289,2.0082
2.0898,2.1073,2.6615,4.5542,2.1515,1.4127,2.0527
2.0653,2.0749,2.6516,4.5625,2.1332,1.4144,2.0811
2.0347,2.0666,2.6428,4.5389,2.1117,1.4291,2.0979
2.0331,2.1192,2.6613,4.526,2.096,1.4398,2.1816
2.06,2.1832,2.7044,4.5132,2.0846,1.4475,2.3132
2.0971,2.2629,2.7557,4.4983,2.0844,1.4738,2.5135
2.1242,2.3587,2.8128,4.4816,2.0759,1.5174,2.781
2.1284,2.4294,2.8572,4.4423,2.0532,1.5531,3.0124
2.1721,2.5015,2.9329,4.4326,2.0398,1.5829,3.1927
2.2457,2.5705,3.0332,4.4607,2.0332,1.6279,3.3682
2.2923,2.6269,3.1115,4.4766,2.0231,1.6754,3.5328
2.3262,2.6778,3.1613,4.4791,2.0136,1.704,3.6404
2.35,2.7239,3.1913,4.5081,2.0099,1.7296,3.7225
2.3674,2.7627,3.2065,4.558,2.004,1.7576,3.7904
2.3923,2.791,3.2078,4.572,1.9965,1.7827,3.8478
2.4281,2.8116,3.2088,4.5656,1.9733,1.8055,3.8955
2.4799,2.8244,3.1994,4.5623,1.9432,1.8243,3.9217
2.5273,2.8155,3.1744,4.5543,1.9119,1.8358,3.9371
2.5595,2.7923,3.1514,4.5447,1.8752,1.8442,3.951
2.5764,2.7738,3.1381,4.5448,1.8496,1.8503,3.9606
2.5757,2.7658,3.1345,4.5485,1.8321,1.849,3.9676
2.5817,2.7623,3.1333,4.5513,1.8194,1.8423,3.9758
2.5991,2.7582,3.1417,4.5477,1.809,1.8454,3.9829
2.6141,2.7598,3.1593,4.5361,1.8049,1.8568,3.9849
2.6235,2.7694,3.1668,4.5149,1.7959,1.8651,3.9863
2.6295,2.7786,3.1615,4.49,1.7963,1.8745,3.9969
2.6371,2.7853,3.1413,4.4222,1.7853,1.8663,4.0146
2.6614,2.7948,3.1099,4.2799,1.7482,1.8322,4.0337
2.7089,2.8032,3.0843,4.1275,1.7212,1.8013,4.0518
2.7458,2.816,3.0713,4.0061,1.7016,1.7825,4.0644
2.7748,2.832,3.0589,3.9108,1.7058,1.7725,4.0669
2.805,2.8466,3.0386,3.8249,1.7274,1.7724,4.0561
2.8306,2.8565,3.0095,3.7623,1.742,1.7747,4.0419
2.8551,2.8725,2.9825,3.7366,1.7513,1.7655,4.03
2.8983,2.8892,2.9964,3.7271,1.7853,1.749,4.0171
2.9405,2.8685,3.0152,3.7214,1.8372,1.737,3.9651
2.9566,2.8278,3.0075,3.7166,1.8793,1.7295,3.8844
2.9569,2.746,2.97,3.7155,1.9088,1.7045,3.737
2.9479,2.6336,2.9049,3.7146,1.9293,1.6656,3.5088
2.9441,2.5471,2.8574,3.714,1.9453,1.6413,3.2885
2.9058,2.4643,2.7753,3.6655,1.9538,1.6236,3.1219
2.8416,2.388,2.6657,3.5765,1.9599,1.5852,2.9444
2.7972,2.3235,2.5859,3.5053,1.9611,1.5358,2.7454
2.7672,2.2686,2.5304,3.4686,1.9588,1.4998,2.5985
2.7454,2.2215,2.4988,3.3916,1.9483,1.461,2.4757
2.7502,2.1801,2.4846,3.2435,1.9351,1.4137,2.3704
2.7684,2.149,2.4742,3.1103,1.93,1.3726,2.2927
2.7641,2.1252,2.4675,3.0178,1.9284,1.3359,2.2361
2.7494,2.123,2.466,2.952,1.924,1.3039,2.1918
2.7387,2.1334,2.465,2.9018,1.9219,1.2892,2.1481
2.7309,2.1391,2.4564,2.8652,1.9269,1.2853,2.1079
2.7252,2.1529,2.4396,2.8323,1.9476,1.2824,2.0828
2.7273,2.1629,2.4176,2.8061,1.9816,1.282,2.0677
2.7184,2.1616,2.3869,2.7783,2.0095,1.285,2.0471
2.6931,2.1605,2.333,2.7455,2.0307,1.2804,2.0225
2.6697,2.1568,2.2705,2.7144,2.0442,1.2705,2.0035
2.6503,2.1431,2.2349,2.6787,2.0551,1.2666,1.9951
2.6336,2.121,2.215,2.6411,2.0504,1.2737,1.9778
2.6183,2.0923,2.1945,2.6079,2.0335,1.2886,1.962
2.5858,2.063,2.1726,2.5836,2.0244,1.3011,1.9539
2.5284,2.0448,2.1445,2.5558,2.0209,1.3054,1.9392
2.4705,2.0262,2.1147,2.511,2.0226,1.302,1.9308
2.4255,2.0073,2.093,2.4669,2.0088,1.306,1.9387
2.4141,2.0021,2.0741,2.4383,1.9781,1.3246,1.9699
2.4202,2.0047,2.0561,2.3962,1.9512,1.3519,1.9957
2.4575,1.9947,2.043,2.3431,1.9316,1.3777,2.0084
2.4959,1.9574,1.9755,2.3045,1.8874,1.3965,2.0177
2.4919,1.913,1.8698,2.2877,1.8252,1.4058,2.0128
2.483,1.8843,1.7831,2.2831,1.7799,1.4197,1.9975
2.4747,1.876,1.7292,2.3047,1.743,1.4429,1.9743
2.467,1.8836,1.7086,2.3414,1.7123,1.457,1.9473
2.4579,1.8902,1.6872,2.3522,1.6899,1.4571,1.9254
2.4504,1.8814,1.6664,2.3593,1.6736,1.4514,1.8906
2.4527,1.8694,1.6665,2.4122,1.6604,1.4517,1.8476
2.4796,1.8652,1.6781,2.4985,1.6495,1.4576,1.8162
2.5126,1.8622,1.6828,2.5485,1.6376,1.4691,1.7933
2.5398,1.8495,1.6708,2.5717,1.6249,1.4831,1.7755
2.5368,1.8356,1.662,2.6068,1.6117,1.4933,1.7612
2.5173,1.8325,1.6711,2.6503,1.5966,1.5008,1.7421
2.5284,1.8315,1.6727,2.6842,1.595,1.5075,1.7244
2.539,1.8126,1.6688,2.7052,1.6096,1.518,1.7346
2.536,1.7808,1.6723,2.7318,1.6254,1.5256,1.7601
2.5322,1.7614,1.686,2.7771,1.6468,1.5312,1.7776
2.5352,1.7409,1.6997,2.8354,1.652,1.5393,1.7891
2.5365,1.7159,1.7085,2.8851,1.6314,1.5453,1.7987
2.5266,1.6938,1.7137,2.9184,1.6012,1.5537,1.8236
2.5151,1.6738,1.7174,2.9469,1.5666,1.5598,1.8597
2.5051,1.658,1.725,2.9718,1.5385,1.5602,1.8871
2.5011,1.649,1.7244,3.0017,1.5122,1.5645,1.8982
2.5017,1.6577,1.7178,3.0452,1.4886,1.5593,1.8964
2.5046,1.6791,1.7167,3.0877,1.4713,1.5474,1.8753
2.5225,1.6971,1.7172,3.1186,1.4588,1.543,1.8425
2.5503,1.7091,1.7188,3.149,1.4437,1.5438,1.8186
2.5754,1.7273,1.7308,3.1797,1.4265,1.5539,1.8
2.5839,1.7454,1.7503,3.2104,1.426,1.5558,1.7662
2.5574,1.7441,1.7749,3.2456,1.4375,1.5333,1.7047
2.5203,1.7432,1.8021,3.2763,1.4473,1.4994,1.6449
2.4499,1.7582,1.8208,3.2936,1.456,1.4702,1.5969
2.3556,1.7841,1.8519,3.2967,1.4679,1.449,1.5562
2.294,1.8122,1.8921,3.2866,1.4808,1.438,1.5309
2.2609,1.8281,1.9246,3.274,1.4888,1.4222,1.5154
2.2446,1.8293,1.9385,3.2461,1.4947,1.3985,1.5012
2.2403,1.8303,1.9455,3.205,1.4947,1.3811,1.4908
2.2486,1.8401,1.9603,3.1765,1.489,1.3685,1.4848
2.2583,1.8552,1.9679,3.1509,1.4775,1.3593,1.4915
2.2607,1.8707,1.9536,3.092,1.4633,1.3526,1.5077
2.2424,1.8819,1.9265,3.0076,1.4646,1.3461,1.5209
2.2105,1.8845,1.9034,2.9399,1.477,1.3349,1.5332
2.1761,1.8853,1.8796,2.8876,1.4861,1.3219,1.5641
2.143,1.8813,1.8404,2.8338,1.4912,1.3124,1.6121
2.1029,1.8784,1.7935,2.7827,1.495,1.3055,1.652
2.0395,1.8886,1.7705,2.7495,1.4921,1.2988,1.6774
1.9752,1.8983,1.765,2.7356,1.4783,1.2855,1.677
1.9388,1.9076,1.751,2.7318,1.4741,1.269,1.6616
1.9226,1.9132,1.7271,2.7006,1.4739,1.2517,1.6503
1.9051,1.9162,1.7071,2.6366,1.4724,1.2338,1.6422
1.8866,1.9261,1.6939,2.595,1.4756,1.219,1.6401
1.8743,1.9408,1.6893,2.5827,1.4751,1.2009,1.6425
1.8767,1.9505,1.7008,2.5669,1.4733,1.1803,1.6429
1.8929,1.9575,1.7249,2.5479,1.4777,1.1615,1.6458
1.9036,1.9637,1.7576,2.5193,1.4851,1.14,1.6505
1.907,1.9562,1.7872,2.4616,1.5015,1.1354,1.6577
1.9073,1.9475,1.8143,2.3966,1.5522,1.1693,1.6789
1.8868,1.9564,1.8518,2.352,1.6155,1.2367,1.709
1.8508,1.9693,1.8867,2.3157,1.6616,1.3024,1.7356
1.8352,1.9701,1.9056,2.3147,1.6952,1.3402,1.755
1.8415,1.9664,1.9129,2.3461,1.71,1.3618,1.7692
1.8483,1.9638,1.9116,2.369,1.7123,1.376,1.7864
1.8521,1.9507,1.905,2.3925,1.7152,1.3864,1.8048
1.8595,1.9209,1.8991,2.4365,1.7161,1.3939,1.8182
1.8693,1.878,1.8762,2.482,1.7105,1.3994,1.8313
1.8731,1.8359,1.8419,2.5127,1.7125,1.4108,1.8499
1.8803,1.8101,1.823,2.5391,1.7215,1.4307,1.8734
1.8923,1.7914,1.8151,2.5559,1.7243,1.4481,1.9045
1.8999,1.7813,1.8175,2.5933,1.7301,1.4594,1.9399
1.9021,1.7882,1.8451,2.6541,1.778,1.48,1.978
1.8992,1.7945,1.8829,2.7104,1.869,1.5075,2.0098
1.896,1.7944,1.9104,2.7682,1.9523,1.5234,2.028
1.888,1.8212,1.9305,2.8275,2.0051,1.5364,2.0402
1.8765,1.8644,1.9451,2.8772,2.0493,1.5512,2.047
2.4749,1.479,1.6105,1.5309,1.4142,1.447,1.723
2.4883,1.4805,1.6105,1.5253,1.4142,1.4455,1.7327
2.5116,1.4843,1.5983,1.517,1.4127,1.443,1.7493
2.5309,1.4784,1.573,1.5081,1.4101,1.4526,1.765
2.5759,1.4755,1.5614,1.4988,1.4082,1.4752,1.7834
2.6361,1.4892,1.5694,1.4934,1.4186,1.4958,1.8003
2.6724,1.4977,1.5819,1.4909,1.4392,1.5109,1.8126
2.6919,1.5025,1.5923,1.4862,1.4558,1.5232,1.825
2.7038,1.5144,1.605,1.4785,1.4678,1.5335,1.8374
2.7078,1.5216,1.6195,1.4714,1.4765,1.5411,1.8465
2.72,1.5335,1.63,1.4762,1.4952,1.5424,1.8439
2.7403,1.5531,1.6325,1.4896,1.5212,1.5393,1.8327
2.7483,1.566,1.6292,1.4981,1.5402,1.537,1.8338
2.7472,1.5957,1.6306,1.5042,1.5731,1.5395,1.8698
2.7441,1.6424,1.6457,1.5073,1.6163,1.5454,1.9145
2.7426,1.6824,1.6566,1.5081,1.6514,1.5497,1.9399
2.7439,1.7092,1.6658,1.503,1.6818,1.5298,1.9572
2.7447,1.7263,1.6838,1.5007,1.7015,1.4984,1.9678
2.6811,1.7399,1.7005,1.5062,1.7085,1.477,1.9776
2.5697,1.7511,1.7258,1.5142,1.7137,1.4524,1.9705
2.4895,1.7604,1.749,1.5297,1.7149,1.4298,1.9535
2.4329,1.7855,1.7648,1.5395,1.7046,1.4134,1.9554
2.4062,1.8318,1.7691,1.5272,1.6856,1.4014,1.9809
2.3859,1.8656,1.7578,1.5054,1.6691,1.3988,2.0229
2.3565,1.8715,1.7446,1.4953,1.6597,1.4074,2.0768
2.335,1.8667,1.7375,1.4938,1.6477,1.4182,2.1853
2.3195,1.8633,1.7397,1.4982,1.6349,1.4303,2.3246
2.3182,1.8608,1.7449,1.5071,1.6257,1.445,2.4323
2.3406,1.8723,1.7487,1.515,1.6293,1.4513,2.5069
2.4071,1.8974,1.7515,1.5207,1.641,1.4501,2.5597
2.4994,1.9188,1.7535,1.5235,1.6482,1.4536,2.6005
2.5736,1.9355,1.7361,1.5255,1.6431,1.4648,2.6325
2.6276,1.952,1.7046,1.5311,1.6303,1.4827,2.6606
2.6481,1.9703,1.6817,1.5406,1.6209,1.5067,2.6763
2.6451,1.9899,1.6663,1.5489,1.6128,1.5283,2.6807
2.6532,2.0021,1.6564,1.555,1.6069,1.5316,2.6808
2.6392,2.0004,1.6426,1.558,1.6012,1.5173,2.6776
2.6131,1.9992,1.6205,1.563,1.5833,1.5011,2.6754
2.6147,2.0047,1.5989,1.5706,1.5564,1.4849,2.6745
2.6166,2.0066,1.5818,1.5761,1.5354,1.4672,2.6723
2.6116,2.0005,1.5638,1.5692,1.5258,1.4483,2.6683
2.6144,1.9929,1.5507,1.5546,1.5285,1.4314,2.7026
2.6132,1.9786,1.5453,1.5325,1.5234,1.4207,2.7647
2.6066,1.9583,1.5428,1.5033,1.5099,1.4114,2.81
2.6067,1.9424,1.541,1.4806,1.5001,1.4076,2.8364
2.6068,1.9124,1.534,1.4626,1.4669,1.4048,2.8333
2.6061,1.8695,1.5116,1.451,1.418,1.3998,2.8115
2.6031,1.8382,1.4867,1.4425,1.3774,1.393,2.7917
2.5985,1.8191,1.4607,1.4407,1.3428,1.385,2.7781
2.5951,1.8052,1.4297,1.4379,1.3176,1.3761,2.7689
2.5893,1.7889,1.4022,1.4269,1.2976,1.3648,2.7591
2.5843,1.7698,1.3885,1.4128,1.2812,1.3613,2.7489
2.5831,1.7546,1.3954,1.3932,1.2641,1.3681,2.7351
2.5847,1.7228,1.4005,1.3675,1.2534,1.3715,2.7149
2.5884,1.7129,1.3997,1.344,1.2473,1.3662,2.6864
2.5942,1.7408,1.4006,1.3285,1.2323,1.356,2.6492
2.6042,1.7658,1.4013,1.3253,1.2232,1.3438,2.5946
2.6202,1.7886,1.3972,1.3357,1.2287,1.3349,2.475
2.6359,1.8064,1.3849,1.3432,1.2429,1.3363,2.3188
2.6151,1.8193,1.376,1.331,1.2581,1.3453,2.1949
2.5569,1.8146,1.3742,1.3221,1.2609,1.3579,2.1046
2.4545,1.7934,1.3681,1.3348,1.2612,1.3717,2.0389
2.3247,1.778,1.3574,1.3503,1.2632,1.3876,1.991
2.2171,1.7692,1.3528,1.3554,1.2596,1.4022,1.9526
2.1343,1.7675,1.3526,1.3482,1.2553,1.4024,1.9213
2.074,1.7688,1.3556,1.3381,1.2522,1.3919,1.903
2.0387,1.7625,1.3743,1.3307,1.2516,1.3811,1.9032
2.0313,1.7505,1.3984,1.3254,1.2511,1.3748,1.9219
2.1247,1.733,1.4101,1.3278,1.2525,1.3717,1.9576
2.2692,1.7153,1.4201,1.3296,1.2552,1.3757,2.004
2.3831,1.7062,1.4375,1.3371,1.2572,1.3876,2.0487
2.4896,1.707,1.4668,1.355,1.2586,1.4008,2.0919
2.5756,1.7162,1.5005,1.3665,1.2678,1.4148,2.1422
2.6382,1.7278,1.5251,1.378,1.2828,1.4336,2.1415
2.6777,1.7375,1.5389,1.4038,1.3061,1.4558,2.0913
2.7004,1.774,1.5645,1.4477,1.3399,1.4776,2.0568
2.71,1.829,1.6026,1.4932,1.369,1.4907,2.035
2.7162,1.8679,1.6291,1.5264,1.3916,1.5002,2.0159
2.7207,1.8984,1.6484,1.5479,1.4081,1.5113,1.9954
2.7355,1.9207,1.6637,1.5636,1.4186,1.5301,1.9772
2.7585,1.9337,1.6785,1.5723,1.4263,1.5546,1.964
2.7752,1.9431,1.7039,1.5707,1.432,1.5763,1.9554
2.7874,1.9457,1.7319,1.5667,1.4375,1.596,1.9672
2.7971,1.9432,1.7315,1.5639,1.4371,1.6051,1.9939
2.8063,1.9665,1.7065,1.5591,1.4353,1.6013,2.0174
2.819,2.0174,1.683,1.5556,1.434,1.6049,2.0335
2.82,2.0305,1.666,1.553,1.4271,1.6194,2.038
2.8064,2.0071,1.6574,1.5484,1.4251,1.63,2.0371
2.8099,1.9868,1.6602,1.5323,1.4221,1.6377,2.0344
2.8283,1.9677,1.671,1.5047,1.4093,1.6381,2.0366
2.8439,1.9526,1.6827,1.4786,1.389,1.6211,2.0434
2.8641,1.9449,1.6874,1.4626,1.3662,1.5952,2.0452
2.8959,1.9393,1.6871,1.4432,1.343,1.5694,2.0434
2.9354,1.9308,1.6869,1.4121,1.316,1.5462,2.0421
2.9691,1.9202,1.688,1.3847,1.2912,1.5309,2.0423
2.9956,1.9135,1.6863,1.3647,1.2732,1.5182,2.0423
3.0205,1.9303,1.6825,1.3549,1.2668,1.509,2.0465
3.0414,1.9597,1.6759,1.3572,1.2673,1.5037,2.0516
3.0511,1.9812,1.6594,1.3681,1.2676,1.4984,2.047
3.0378,1.9968,1.6422,1.3791,1.284,1.4974,2.0385
2.9369,2.0092,1.6309,1.3811,1.3102,1.4995,2.0149
2.7905,2.0193,1.6381,1.3913,1.3293,1.4939,1.9746
2.6776,2.0266,1.6549,1.4049,1.3448,1.4797,1.953
2.5828,2.0371,1.6532,1.4074,1.3621,1.4708,1.9407
2.5064,2.0549,1.6416,1.4108,1.3654,1.4657,1.9041
2.4462,2.0808,1.6292,1.4147,1.349,1.4517,1.8598
2.3985,2.1105,1.6161,1.4037,1.3184,1.4293,1.8324
2.3914,2.1351,1.5855,1.3667,1.2751,1.4052,1.8136
2.4183,2.1539,1.5478,1.3247,1.2381,1.386,1.807
2.4682,2.1835,1.5389,1.2958,1.213,1.3672,1.8393
2.54,2.2165,1.549,1.2833,1.2019,1.3536,1.8882
2.5868,2.2368,1.5563,1.281,1.1993,1.3403,1.9228
2.6209,2.2516,1.5522,1.2793,1.201,1.3208,1.9469
2.6606,2.276,1.5321,1.283,1.2125,1.2998,1.9718
2.6986,2.3152,1.5075,1.2906,1.2261,1.2846,1.9909
2.7293,2.3516,1.4926,1.2961,1.2426,1.2802,1.9976
2.7577,2.3703,1.4889,1.3065,1.2562,1.2853,1.9993
2.8261,2.3992,1.4933,1.3205,1.2662,1.2822,2.0068
2.9661,2.4689,1.5021,1.3368,1.28,1.2734,2.0673
3.1189,2.5452,1.5127,1.3563,1.2867,1.2737,2.1571
3.2168,2.6031,1.5162,1.3705,1.2884,1.269,2.2233
3.2722,2.6476,1.509,1.3794,1.2961,1.2671,2.2786
3.3077,2.6921,1.4965,1.3873,1.3082,1.2741,2.3327
3.3316,2.7343,1.4903,1.3946,1.3185,1.2825,2.3798
3.3446,2.7629,1.4915,1.3984,1.3245,1.2966,2.4402
3.3446,2.7954,1.4938,1.4042,1.3272,1.3117,2.5072
3.3402,2.8302,1.4955,1.4114,1.3339,1.313,2.5528
3.3357,2.8584,1.4967,1.4166,1.342,1.3076,2.593
3.3286,2.8649,1.4976,1.4219,1.3416,1.3053,2.6417
3.3215,2.852,1.5106,1.4198,1.3381,1.3019,2.7071
3.3215,2.8426,1.5324,1.4076,1.3371,1.3043,2.7694
3.3297,2.8417,1.5523,1.4002,1.3233,1.3077,2.8062
3.342,2.8493,1.5707,1.3995,1.3,1.307,2.8278
3.3522,2.8533,1.5621,1.3832,1.2897,1.3097,2.8443
3.3476,2.8503,1.5338,1.3651,1.289,1.3133,2.8444
3.3436,2.8421,1.5131,1.36,1.2834,1.3159,2.8325
3.3502,2.8263,1.5024,1.3685,1.2743,1.3225,2.8261
3.3551,2.814,1.4975,1.3808,1.266,1.3383,2.8237
3.3592,2.8141,1.4967,1.3839,1.2583,1.3559,2.819
3.3396,2.8019,1.5004,1.3876,1.2543,1.3702,2.8125
3.3022,2.7769,1.4974,1.3918,1.2582,1.3821,2.804
3.251,2.7588,1.4776,1.3994,1.266,1.3909,2.7775
3.1843,2.7463,1.4466,1.4049,1.2717,1.3926,2.7417
3.1356,2.7442,1.4194,1.4044,1.2758,1.3832,2.7124
3.0952,2.7488,1.4132,1.4085,1.2869,1.3716,2.6887
3.0587,2.7429,1.4209,1.4115,1.2982,1.3631,2.6649
3.0292,2.7229,1.425,1.4077,1.3001,1.3489,2.6327
3.0077,2.7214,1.4266,1.4095,1.2948,1.337,2.6042
2.9935,2.7276,1.4202,1.4107,1.286,1.3331,2.5861
2.9321,2.691,1.4079,1.4101,1.2728,1.3351,2.5652
2.7686,2.6073,1.3911,1.4215,1.2614,1.3349,2.4985
2.6013,2.5717,1.3726,1.4357,1.2583,1.3332,2.407
2.5011,2.6037,1.3591,1.4446,1.2611,1.3414,2.349
2.4781,2.6582,1.3493,1.4496,1.2614,1.3458,2.3029
2.551,2.7486,1.3437,1.4504,1.2599,1.3475,2.2526
2.6463,2.8398,1.3412,1.445,1.2656,1.3654,2.2109
2.7208,2.9138,1.3441,1.4425,1.2779,1.3846,2.1415
2.7859,2.9684,1.351,1.4423,1.2917,1.3926,2.053
2.844,3.0041,1.3544,1.4376,1.2953,1.3939,1.9898
2.8885,3.0274,1.3553,1.4343,1.293,1.3903,1.933
2.923,3.0402,1.3681,1.4489,1.2962,1.3996,1.8481
2.9502,3.0488,1.3895,1.4781,1.3035,1.424,1.7163
2.9993,3.0572,1.4007,1.5047,1.3088,1.4432,1.6085
3.0588,3.0591,1.3998,1.5241,1.3173,1.4529,1.5602
3.0989,3.0578,1.3946,1.5355,1.3283,1.46,1.5295
3.1281,3.0582,1.3923,1.5452,1.3316,1.4694,1.5071
3.144,3.0557,1.3907,1.5398,1.3292,1.4791,1.4908
3.1456,3.0511,1.388,1.5233,1.3275,1.4848,1.4847
3.14,3.0513,1.3813,1.4994,1.3278,1.4832,1.493
3.1359,3.0457,1.3734,1.4718,1.3359,1.4763,1.5061
3.135,3.0247,1.3644,1.4546,1.36,1.4727,1.521
3.135,3.0009,1.3531,1.4481,1.388,1.4715,1.5413
3.1357,2.9806,1.3449,1.4478,1.4025,1.475,1.5548
3.1462,2.9607,1.3389,1.4416,1.4087,1.486,1.5749
3.1658,2.9411,1.3393,1.4357,1.4086,1.4968,1.6064
3.1867,2.9384,1.349,1.4343,1.4101,1.5033,1.6356
3.2065,2.9586,1.348,1.4273,1.4097,1.508,1.6618
3.2209,2.9839,1.3347,1.4222,1.4137,1.5128,1.6821
3.2372,3.0016,1.3234,1.4245,1.43,1.5232,1.6981
3.2498,3.0075,1.3152,1.4277,1.4433,1.5362,1.7048
3.2485,3.0061,1.3108,1.43,1.453,1.5403,1.7048
3.2424,3.0115,1.314,1.4272,1.4657,1.5321,1.706
3.2399,3.021,1.329,1.4129,1.4807,1.522,1.7082
3.224,2.9815,1.3399,1.3964,1.4957,1.5103,1.7134
3.1964,2.9022,1.34,1.3875,1.5052,1.4901,1.7209
3.1372,2.8117,1.3401,1.3886,1.508,1.471,1.7215
3.0196,2.6803,1.3418,1.3971,1.5058,1.4586,1.7169
2.886,2.553,1.343,1.4047,1.4971,1.4372,1.7124
2.7718,2.4651,1.3375,1.4042,1.4834,1.4156,1.7091
2.6737,2.3933,1.3397,1.3963,1.4691,1.4077,1.7116
2.5908,2.3333,1.3554,1.389,1.4645,1.4079,1.7208
2.5295,2.2866,1.3668,1.3956,1.4713,1.4111,1.7311
2.4849,2.2507,1.361,1.3893,1.4776,1.398,1.7435
2.4524,2.2399,1.3358,1.3599,1.4766,1.3743,1.7607
2.3905,2.251,1.3074,1.33,1.4744,1.3555,1.7587
2.3074,2.2638,1.2901,1.3014,1.4684,1.3528,1.734
2.2374,2.2685,1.2826,1.2789,1.4596,1.3619,1.7108
2.1772,2.27,1.2754,1.2624,1.4518,1.3623,1.7004
2.1333,2.2739,1.2702,1.2539,1.4431,1.3595,1.6991
2.0928,2.2796,1.2664,1.2545,1.4337,1.3543,1.6943
2.058,2.2818,1.267,1.2649,1.4239,1.3474,1.7066
2.0358,2.2797,1.2707,1.2758,1.4106,1.3439,1.7397
2.0229,2.2865,1.2702,1.287,1.3833,1.3461,1.765
2.0167,2.2988,1.273,1.2951,1.3505,1.3509,1.7752
2.0122,2.315,1.2942,1.2945,1.3249,1.3464,1.7884
2.0088,2.3258,1.3283,1.2941,1.3096,1.3368,1.8085
2.0032,2.3247,1.3576,1.2905,1.3034,1.3314,1.822
1.9782,2.2992,1.3729,1.2845,1.2922,1.3291,1.8441
1.941,2.2406,1.3997,1.2802,1.2721,1.3321,1.8736
1.907,2.1785,1.4462,1.2754,1.2374,1.3391,1.9036
1.8655,2.1311,1.4869,1.2719,1.1973,1.3378,1.935
1.8243,2.0846,1.5217,1.2775,1.1739,1.324,1.96
1.7943,2.0411,1.5524,1.2961,1.168,1.3089,1.9793
1.7725,2.0038,1.5708,1.316,1.1618,1.3013,1.9933
1.7529,1.9677,1.5854,1.3305,1.1441,1.2974,2.0067
1.7385,1.9448,1.6039,1.3395,1.1173,1.2962,2.0164
1.7318,1.9281,1.62,1.3565,1.0978,1.297,2.0151
1.7169,1.9125,1.6367,1.3767,1.0917,1.2975,2.0089
1.6919,1.892,1.6527,1.3868,1.0872,1.2913,2
1.6801,1.8618,1.6593,1.3943,1.0859,1.2932,1.9936
1.6818,1.8277,1.659,1.4012,1.0889,1.3012,1.9922
1.6892,1.7969,1.6483,1.4136,1.093,1.299,1.9857
1.7057,1.778,1.6301,1.4299,1.0881,1.2957,1.9734
1.7189,1.768,1.6181,1.4314,1.0704,1.295,1.9612
1.7345,1.7607,1.6108,1.4207,1.0491,1.2977,1.9523
1.7691,1.7467,1.6014,1.4261,1.0337,1.2964,1.9513
1.8155,1.7597,1.5905,1.4448,1.0245,1.2922,1.9559
1.8571,1.8022,1.577,1.4598,1.0157,1.2752,1.9636
1.8969,1.8309,1.5659,1.4721,1.0072,1.2544,1.9724
1.9343,1.844,1.5633,1.4825,1.0093,1.2446,1.9691
1.9595,1.8501,1.5668,1.4887,1.0192,1.234,1.9592
1.9851,1.8558,1.5733,1.4917,1.0265,1.2245,1.953
2.012,1.8731,1.5741,1.4882,1.0396,1.2158,1.9244
2.0436,1.899,1.576,1.4857,1.0551,1.2279,1.8758
2.09,1.9124,1.5879,1.4838,1.0645,1.2568,1.8356
2.1571,1.9179,1.598,1.4753,1.0733,1.278,1.8099
2.2278,1.9129,1.5892,1.4676,1.0835,1.2933,1.7862
2.2793,1.8992,1.5664,1.4605,1.0929,1.2981,1.7501
2.3237,1.8903,1.5412,1.5001,1.0997,1.2951,1.7148
2.3707,1.8896,1.5243,1.5752,1.1066,1.3071,1.6728
2.4159,1.9033,1.4952,1.6346,1.119,1.3255,1.6301
2.4522,1.9231,1.4468,1.6826,1.1317,1.3343,1.6032
2.4819,1.9408,1.4193,1.7346,1.1392,1.3422,1.6419
2.5261,1.9537,1.4119,1.7793,1.1446,1.3631,1.7532
2.5776,1.9566,1.411,1.7985,1.1411,1.3917,1.8581
2.6311,1.9544,1.4207,1.8078,1.1385,1.4125,1.9326
2.6885,1.9473,1.4218,1.8099,1.1441,1.4277,1.9858
2.7324,1.9433,1.409,1.8127,1.15,1.4387,2.0246
2.7704,1.9447,1.3967,1.8135,1.1562,1.4482,2.0488
2.8148,1.9447,1.3862,1.8082,1.1606,1.4566,2.0782
2.8747,1.9446,1.3831,1.8079,1.1794,1.4683,2.1163
2.9317,1.9446,1.387,1.8112,1.2069,1.4711,2.1412
2.9678,1.9446,1.3973,1.8136,1.2237,1.4631,2.1555
2.9863,1.9478,1.4094,1.8106,1.2342,1.4602,2.1668
2.9922,1.9491,1.4151,1.8026,1.2435,1.4551,2.1902
2.9964,1.9489,1.4294,1.7991,1.252,1.447,2.2222
3.0202,1.9606,1.45,1.8269,1.2598,1.4411,2.2573
3.0777,1.968,1.4678,1.8685,1.2799,1.4412,2.2893
3.1316,1.9411,1.4863,1.8924,1.3057,1.45,2.3081
3.1592,1.9082,1.5066,1.912,1.323,1.4622,2.3401
3.174,1.8935,1.5214,1.9295,1.334,1.4794,2.4112
3.1841,1.8828,1.5268,1.9411,1.3357,1.5002,2.4915
3.2045,1.8784,1.5265,1.9486,1.3338,1.5168,2.5555
3.2266,1.874,1.5276,1.9496,1.3356,1.5275,2.6075
3.2395,1.8484,1.5447,1.9504,1.3337,1.5339,2.6423
3.2443,1.8156,1.5639,1.951,1.3292,1.5155,2.6654
3.2643,1.7917,1.5739,1.9514,1.3275,1.4742,2.6891
3.2841,1.7986,1.5799,1.9571,1.3246,1.441,2.7171
3.2846,1.8316,1.5842,1.9634,1.3209,1.4185,2.7413
3.2764,1.8601,1.5887,1.9691,1.3133,1.4036,2.7589
3.2857,1.8852,1.5907,1.9328,1.3028,1.3943,2.7837
3.3346,1.9002,1.5908,1.8659,1.2935,1.3746,2.8223
3.4414,1.9155,1.5908,1.812,1.28,1.3475,2.8815
3.5908,1.9693,1.6013,1.7638,1.2718,1.3406,2.9828
3.7331,2.0483,1.628,1.7155,1.2775,1.3484,3.0606
3.8426,2.1096,1.6526,1.6709,1.2866,1.3462,3.0746
3.9238,2.1534,1.6617,1.6384,1.2948,1.3366,3.0848
3.9845,2.1862,1.6595,1.6161,1.2976,1.3297,3.1038
4.018,2.2119,1.6527,1.6012,1.293,1.3294,3.1163
4.045,2.2241,1.6517,1.5862,1.2881,1.3324,3.1234
4.0874,2.2292,1.661,1.5712,1.2794,1.3314,3.1313
4.1306,2.2367,1.6691,1.5589,1.2663,1.3275,3.1295
4.1433,2.2497,1.6775,1.5554,1.255,1.3181,3.1174
4.1404,2.2637,1.6936,1.5597,1.2485,1.3047,3.1078
4.1367,2.2758,1.7089,1.5734,1.284,1.3061,3.1036
4.1341,2.2864,1.72,1.5989,1.3482,1.3202,3.1026
4.1321,2.2924,1.733,1.642,1.3937,1.335,3.0901
4.1292,2.2948,1.7375,1.6926,1.4295,1.355,3.0803
4.1321,2.3083,1.736,1.7189,1.4639,1.3785,3.0897
4.1159,2.3362,1.7361,1.7273,1.482,1.3956,3.1006
4.0791,2.3466,1.7326,1.7347,1.484,1.3991,3.112
4.0566,2.3362,1.7263,1.7376,1.4979,1.3956,3.1085
4.0444,2.324,1.7179,1.7361,1.5219,1.3788,3.0637
4.0334,2.316,1.7156,1.7399,1.5446,1.3522,3.0058
4.0195,2.3112,1.7272,1.7659,1.5651,1.3312,2.9568
4.0057,2.3076,1.7406,1.8078,1.5801,1.3175,2.9144
4.002,2.3041,1.7395,1.8428,1.5897,1.3339,2.9013
4.0015,2.2978,1.7362,1.8852,1.6249,1.3704,2.9202
3.9723,2.2905,1.7435,1.9382,1.6802,1.4083,2.9558
3.9266,2.2648,1.7561,1.9849,1.7217,1.4471,2.9874
3.896,2.2259,1.7664,2.0219,1.753,1.4753,3.0103
3.8771,2.1975,1.7739,2.0529,1.7758,1.4946,3.0326
3.8359,2.1798,1.7841,2.0823,1.7913,1.5113,3.044
3.759,2.1689,1.7962,2.1097,1.806,1.5276,3.0611
3.6191,2.1478,1.805,2.1363,1.8214,1.55,3.0959
3.4953,2.0907,1.8019,2.1587,1.8279,1.5649,3.097
3.4272,2.0137,1.7714,2.1662,1.8246,1.568,3.0678
3.3539,1.9517,1.7304,2.1726,1.8187,1.5702,3.043
3.2834,1.9101,1.7056,2.1889,1.8179,1.5664,3.0098
3.2177,1.8821,1.6915,2.2027,1.8242,1.5819,2.9761
3.1671,1.8606,1.6799,2.2108,1.8424,1.8071,2.9567
3.1273,1.8449,1.6715,2.2157,1.8691,2.1656,2.9477
3.0745,1.8335,1.6601,2.2155,1.8917,2.4268,2.9382
3.0152,1.8239,1.6467,2.2154,1.9082,2.6231,2.9349
2.9727,1.8062,1.6247,2.2257,1.9148,2.7879,2.9412
2.9417,1.7824,1.5922,2.2388,1.9129,2.9263,2.955
2.9273,1.7537,1.56,2.239,1.8822,3.0246,2.9686
2.9219,1.7213,1.5449,2.2306,1.8414,3.091,2.9786
2.9172,1.6952,1.5425,2.2096,1.8261,3.1374,2.9949
2.9246,1.6748,1.5407,2.1915,1.8335,3.1693,3.0025
2.9167,1.66,1.5436,2.1753,1.8481,3.1905,2.9794
2.8979,1.6644,1.5456,2.1454,1.8577,3.2138,2.9696
2.8953,1.6827,1.5472,2.1237,1.8779,3.2791,2.9814
2.8898,1.6912,1.5469,2.1109,1.9099,3.4698,2.9843
2.8791,1.6924,1.5508,2.1046,1.9407,3.7131,2.9893
2.875,1.692,1.5549,2.1001,1.96,3.8909,3.0013
2.872,1.6854,1.5412,2.0812,1.9698,4.0676,3.0226
2.8864,1.6767,1.5186,2.0517,1.979,4.4478,3.0859
2.9086,1.673,1.4976,2.0226,1.99,4.9647,3.158
2.9127,1.6815,1.478,1.997,1.9817,5.3763,3.1842
2.9149,1.7013,1.4561,1.986,1.9672,5.694,3.1768
2.923,1.7253,1.4309,1.9855,1.9654,5.9544,3.1572
2.9318,1.7487,1.4232,1.9852,1.9673,6.1666,3.1498
2.9339,1.7622,1.434,1.9817,1.9751,6.3437,3.1438
2.9686,1.7743,1.4744,1.9887,1.9882,6.5075,3.1339
3.0252,1.7891,1.5268,2.0064,1.9988,6.6548,3.1043
3.0691,1.7998,1.5638,2.0244,2.0116,6.7714,3.0303
3.0413,1.7982,1.5945,2.0467,2.0293,6.8638,2.9346
2.9537,1.7826,1.6207,2.067,2.0411,6.9565,2.8505
2.9066,1.7677,1.6472,2.0767,2.0538,7.0537,2.7877
2.8913,1.7543,1.6703,2.0746,2.0651,7.136,2.7394
2.878,1.7421,1.687,2.07,2.0672,7.1986,2.7043
2.8778,1.7441,1.7041,2.0688,2.0728,7.1946,2.6779
2.9087,1.7541,1.7165,2.0678,2.0799,7.1445,2.6619
2.9397,1.7566,1.722,2.0661,2.08,7.1131,2.6639
2.9518,1.7548,1.7308,2.07,2.0791,7.0936,2.6653
2.9607,1.7571,1.742,2.0623,2.0835,7.1131,2.664
2.9706,1.7636,1.7502,2.0411,2.0918,7.1718,2.6606
2.9779,1.7695,1.755,2.0352,2.0978,7.2235,2.6526
2.9909,1.775,1.7524,2.0372,2.094,7.2609,2.6475
3.017,1.7814,1.7432,2.0386,2.08,7.295,2.6494
3.0312,1.7872,1.7413,2.0268,2.0506,7.3282,2.6556
3.0205,1.76,1.7425,2.0109,2.013,7.3581,2.6625
2.9934,1.6919,1.7384,2.008,1.9823,7.3799,2.6445
2.9649,1.6239,1.733,2.0015,1.9462,7.373,2.6086
2.942,1.5858,1.7387,2.0173,1.9013,7.2935,2.5926
2.9238,1.575,1.7537,2.0535,1.8638,7.1796,2.5972
2.9053,1.592,1.7647,2.0798,1.8401,7.1012,2.6412
2.8926,1.6263,1.7738,2.0961,1.8241,7.0187,2.7039
2.8658,1.6526,1.7829,2.1128,1.8136,6.7433,2.7197
2.8342,1.6754,1.7906,2.1367,1.8047,6.5201,2.7083
2.8236,1.6845,1.7927,2.1462,1.7971,6.6203,2.7195
2.8315,1.6862,1.7859,2.1261,1.7855,6.7753,2.7513
2.8492,1.6836,1.781,2.0929,1.771,6.8625,2.7856
2.8735,1.6729,1.7761,2.0687,1.7567,6.9098,2.8017
2.9238,1.6764,1.7808,2.0574,1.7426,6.9327,2.8037
2.9438,1.6891,1.7678,2.0352,1.7286,6.9225,2.7975
2.9251,1.6995,1.7329,1.9984,1.7146,6.8941,2.7838
2.9055,1.7144,1.7127,1.958,1.6927,6.8883,2.7769
2.8778,1.7301,1.7079,1.9182,1.6664,6.8936,2.7773
2.8531,1.7509,1.7145,1.8927,1.6499,6.8811,2.7776
2.821,1.78,1.7143,1.8741,1.6284,6.858,2.777
2.779,1.8047,1.7054,1.8571,1.6019,6.8514,2.7766
2.746,1.8316,1.7002,1.8482,1.5868,6.8554,2.7747
2.7164,1.86,1.6977,1.8452,1.5584,6.8417,2.768
2.6586,1.8808,1.7032,1.8476,1.5177,6.8215,2.7561
2.5861,1.8948,1.7219,1.8714,1.5123,6.9032,2.7373
2.5513,1.9083,1.7355,1.901,1.531,7.0559,2.7172
2.5442,1.9181,1.7455,1.9257,1.5446,7.1268,2.7026
2.5347,1.9242,1.7575,1.9563,1.5559,7.1263,2.6912
2.5236,1.9351,1.771,1.9776,1.5641,7.1167,2.7292
2.5095,1.9453,1.7808,1.9869,1.5687,7.1154,2.8077
2.4992,1.9505,1.7855,1.9883,1.5721,7.1162,2.8746
2.5044,1.9565,1.7806,1.9851,1.585,7.1141,2.9296
2.5142,1.9651,1.7662,1.9729,1.6062,7.1126,2.9696
2.5246,1.9724,1.7545,1.9542,1.6229,7.1115,3.0203
2.5485,1.9778,1.7472,1.9449,1.6401,7.1134,3.082
2.5773,1.973,1.733,1.9245,1.6514,7.1195,3.127
2.5999,1.9609,1.7089,1.8915,1.6494,7.1258,3.1465
2.6187,1.9385,1.6913,1.8709,1.6441,7.1264,3.1166
2.6284,1.9075,1.681,1.8582,1.6441,7.1234,3.0539
2.6283,1.8929,1.6761,1.842,1.6628,7.162,2.9834
2.6118,1.8869,1.6764,1.8206,1.6913,7.0514,2.9099
2.594,1.878,1.6753,1.7965,1.701,6.6699,2.8525
2.581,1.8622,1.6927,1.7729,1.7032,6.2693,2.7987
2.5616,1.8449,1.7214,1.7531,1.711,5.9763,2.7475
2.5449,1.8346,1.7352,1.7337,1.7167,5.7592,2.7077
2.5108,1.8164,1.7215,1.7158,1.7172,5.5874,2.6796
2.4631,1.7873,1.6927,1.7078,1.7138,5.4506,2.6904
2.4302,1.7636,1.669,1.707,1.7114,5.3392,2.7264
2.4169,1.74,1.6438,1.7076,1.7096,5.222,2.7411
2.4188,1.714,1.6102,1.7154,1.7083,5.1107,2.7405
2.4202,1.6844,1.5702,1.7224,1.7073,5.0208,2.7423
2.428,1.651,1.5426,1.7262,1.7054,4.9356,2.7528
2.4442,1.6266,1.5267,1.7375,1.7027,4.8419,2.7673
2.4585,1.5963,1.5138,1.7505,1.7008,4.7552,2.8126
2.4714,1.5496,1.5044,1.7693,1.7092,4.7516,2.8809
2.4817,1.5038,1.4856,1.7979,1.7251,4.8011,2.9294
2.4926,1.4703,1.4602,1.8107,1.7218,4.6738,2.9619
2.4814,1.4398,1.4401,1.8026,1.7059,4.4185,3.0012
2.4543,1.425,1.4178,1.7833,1.6851,4.2285,3.051
2.4346,1.4235,1.3952,1.7741,1.6635,4.0906,3.0945
2.4148,1.418,1.3787,1.7877,1.653,3.9902,3.0852
2.3904,1.414,1.3668,1.8046,1.6467,3.9084,3.0288
2.3512,1.411,1.3564,1.818,1.6408,3.8332,2.9628
2.3036,1.4043,1.3473,1.8278,1.6245,3.7684,2.8958
2.2679,1.3932,1.3423,1.8349,1.6059,3.7142,2.8469
2.237,1.3836,1.3465,1.8435,1.6071,3.6722,2.7828
2.1933,1.3766,1.3542,1.8486,1.6145,3.6387,2.7
2.1503,1.3715,1.3567,1.8478,1.6121,3.5998,2.6294
2.1168,1.3678,1.3555,1.8426,1.6064,3.5623,2.5822
2.0894,1.3651,1.3482,1.8341,1.6022,3.5338,2.5557
2.0651,1.3647,1.3445,1.8279,1.5951,3.5094,2.5405
2.0526,1.3531,1.3481,1.8199,1.5629,3.391,2.5396
2.054,1.3335,1.3492,1.8094,1.5165,3.2037,2.5423
2.056,1.3273,1.3621,1.8016,1.4842,3.0712,2.5307
2.0503,1.3416,1.3617,1.8077,1.4481,2.9832,2.5121
2.063,1.3598,1.3381,1.8237,1.4202,2.9176,2.4951
2.0723,1.37,1.3209,1.8365,1.4125,2.869,2.4792
2.0641,1.3775,1.31,1.8424,1.4069,2.839,2.4651
2.1138,1.3768,1.3038,1.8489,1.4074,2.8202,2.4188
2.1936,1.3717,1.3041,1.8627,1.4122,2.8096,2.3519
2.2419,1.3725,1.3092,1.8762,1.4172,2.8079,2.306
2.2744,1.3778,1.3129,1.8769,1.4209,2.8127,2.2746
2.3106,1.3832,1.3204,1.8695,1.4206,2.8094,2.2478
2.3306,1.3824,1.3258,1.8607,1.4203,2.804,2.2164
2.33,1.3758,1.3266,1.8461,1.4428,2.9306,2.1845
2.3259,1.3724,1.3239,1.832,1.4763,3.1428,2.1176
2.3551,1.3716,1.3155,1.8157,1.4967,3.202,2.0343
2.4178,1.371,1.3127,1.7917,1.5115,3.1542,1.9865
2.4675,1.3766,1.3106,1.7644,1.5167,3.1298,1.9563
2.5212,1.3883,1.3058,1.7444,1.5136,3.1244,1.9166
2.5802,1.386,1.3104,1.7337,1.5099,3.1218,1.8499
2.6256,1.3721,1.3201,1.705,1.5029,3.1247,1.7888
2.6609,1.3619,1.3224,1.6632,1.4978,3.1322,1.7508
2.6927,1.3561,1.3193,1.6328,1.4984,3.143,1.7231
2.722,1.355,1.3311,1.612,1.4989,3.1642,1.708
2.7434,1.3558,1.3537,1.6023,1.4977,3.1875,1.7034
2.7627,1.3699,1.3745,1.6045,1.4912,3.1992,1.6975
2.7835,1.3938,1.3883,1.6074,1.4701,3.2005,1.7077
2.8054,1.4126,1.3938,1.6069,1.4427,3.2093,1.7614
2.825,1.4277,1.3993,1.6012,1.4447,3.2314,1.8437
2.8415,1.4344,1.4034,1.5957,1.4682,3.2551,1.911
2.858,1.4289,1.418,1.5971,1.4852,3.2744,1.9518
2.875,1.4188,1.436,1.6033,1.5017,3.2903,1.9816
2.9018,1.4234,1.4448,1.6131,1.5192,3.3032,1.9981
2.9327,1.437,1.4526,1.6202,1.5347,3.3119,2.005
2.9495,1.4397,1.4464,1.6254,1.546,3.3132,2.0223
2.9504,1.4235,1.4331,1.6292,1.5542,3.3122,2.0551
2.9335,1.3994,1.428,1.6307,1.5547,3.3128,2.0869
2.9117,1.3865,1.4243,1.6291,1.5468,3.3093,2.1101
2.8921,1.3834,1.4215,1.6267,1.5397,3.3182,2.1299
2.8338,1.3811,1.418,1.6128,1.5346,3.338,2.1472
2.7532,1.3716,1.4094,1.5864,1.5294,3.4206,2.1598
2.6946,1.3584,1.3985,1.5615,1.5352,3.5461,2.1661
2.6451,1.3487,1.3906,1.5531,1.5556,3.6327,2.1688
2.5954,1.3541,1.3848,1.5566,1.577,3.7177,2.1717
2.5601,1.3704,1.3806,1.5579,1.5978,3.7997,2.1748
2.5429,1.3823,1.3775,1.5694,1.5954,3.7415,2.177
2.5338,1.3954,1.3799,1.5845,1.5723,3.5856,2.1698
2.4865,1.4094,1.3862,1.5862,1.544,3.472,2.1566
2.4041,1.4211,1.3982,1.5781,1.5161,3.3893,2.152
2.3536,1.431,1.4144,1.5666,1.5017,3.3188,2.1763
2.3068,1.4368,1.4305,1.5528,1.4941,3.2607,2.2121
2.2689,1.4396,1.4407,1.537,1.49,3.2225,2.2327
2.2581,1.453,1.4409,1.5297,1.4913,3.2001,2.2392
2.2464,1.481,1.4607,1.5395,1.4908,3.1865,2.2355
2.2301,1.5082,1.4961,1.5601,1.4847,3.1711,2.2394
2.2249,1.5266,1.5109,1.579,1.486,3.1518,2.2607
2.2355,1.5387,1.5093,1.5876,1.494,3.1363,2.2873
2.2356,1.535,1.5025,1.5844,1.5012,3.1278,2.3057
2.2476,1.5155,1.4947,1.5888,1.5065,3.1202,2.3044
2.2759,1.4969,1.489,1.6063,1.509,3.1029,2.281
2.2992,1.4833,1.4891,1.6192,1.4871,3.0728,2.2405
2.3162,1.4778,1.5004,1.6207,1.4535,3.0424,2.1991
2.3232,1.4838,1.5015,1.614,1.4337,3.0173,2.1719
2.3228,1.498,1.5104,1.601,1.4193,2.9962,2.1481
2.2959,1.4997,1.5322,1.5875,1.4073,2.9851,2.1317
2.2525,1.4898,1.5415,1.579,1.3954,2.9891,2.1259
2.2238,1.4897,1.5482,1.5782,1.3852,3.1172,2.1072
2.2059,1.5062,1.5503,1.5908,1.4261,3.4506,2.0781
2.1849,1.5292,1.5519,1.6091,1.4993,3.8176,2.0663
2.1616,1.542,1.5612,1.6238,1.5488,4.0881,2.066
2.1446,1.5458,1.5706,1.6357,1.5849,4.274,2.0617
2.1313,1.5487,1.5775,1.6457,1.6099,4.4142,2.0565
2.1439,1.564,1.5941,1.6579,1.6331,4.4771,2.0568
2.1793,1.5831,1.6204,1.6707,1.6437,4.4781,2.0632
2.2214,1.5971,1.647,1.6799,1.6463,4.493,2.0699
2.2658,1.6006,1.6652,1.6867,1.6534,4.4867,2.0768
2.29,1.5926,1.6722,1.6916,1.6636,4.4621,2.0849
2.2995,1.5868,1.6859,1.685,1.6821,4.4457,2.0997
2.311,1.5826,1.7008,1.6687,1.7006,4.4452,2.1194
2.323,1.5795,1.7081,1.6607,1.7128,4.4582,2.1248
2.3308,1.5773,1.7033,1.6601,1.7168,4.4681,2.1355
2.3227,1.5715,1.6872,1.6708,1.7257,4.5191,2.1352
2.303,1.5646,1.6703,1.6887,1.7407,4.613,2.1079
2.2651,1.5596,1.6593,1.7053,1.7492,4.6997,2.0891
2.2149,1.564,1.6577,1.7174,1.7543,4.7629,2.0796
2.1825,1.5766,1.6378,1.7062,1.7579,4.8037,2.0726
2.1648,1.5858,1.6032,1.6828,1.7642,4.8335,2.0623
2.1386,1.6041,1.5766,1.6645,1.7687,4.8517,2.0334
2.0999,1.6277,1.5614,1.6551,1.772,4.8589,1.996
2.0675,1.6436,1.5559,1.6534,1.778,4.862,1.9787
2.0156,1.6552,1.5505,1.6456,1.7824,4.8664,1.9748
1.9447,1.6624,1.5466,1.6294,1.7856,4.8704,1.9709
1.8832,1.6664,1.5409,1.6136,1.7867,4.8893,1.9839
1.8385,1.6655,1.5269,1.6008,1.7863,4.9219,2.0298
1.8096,1.6609,1.511,1.5887,1.7954,5.0273,2.0829
1.7885,1.6538,1.4765,1.5785,1.8079,5.1824,2.1216
1.784,1.6446,1.4283,1.5711,1.8181,5.292,2.1421
1.7914,1.638,1.3996,1.5764,1.8313,5.3653,2.1484
1.8203,1.6292,1.3836,1.5869,1.8431,5.3384,2.1672
1.8638,1.6065,1.3687,1.5698,1.8084,5.1218,2.1878
1.8933,1.5886,1.3497,1.5379,1.7505,4.8403,2.1864
1.9105,1.5852,1.3243,1.5162,1.7242,4.6358,2.1767
1.9197,1.6128,1.3024,1.5003,1.7139,4.4909,2.1696
1.9275,1.6644,1.2882,1.4873,1.7176,4.3707,2.1674
1.9163,1.6924,1.2618,1.4763,1.7227,4.2706,2.1658
1.8855,1.7031,1.2188,1.4698,1.7228,4.1864,2.1577
1.8398,1.7073,1.1799,1.4545,1.7115,4.1073,2.1488
1.7879,1.7066,1.1534,1.4314,1.697,4.0448,2.1433
1.7502,1.7061,1.1361,1.4145,1.6852,3.997,2.1393
1.7214,1.7045,1.107,1.4007,1.6662,3.9715,2.1284
1.6885,1.7083,1.0694,1.3906,1.6588,4.0767,2.1153
1.6593,1.7208,1.0483,1.3924,1.6749,4.2644,2.1129
1.6394,1.7335,1.0415,1.3998,1.6965,4.3998,2.0901
1.6249,1.7428,1.0406,1.3913,1.6998,4.4527,2.0484
1.691,1.7532,1.042,1.3791,1.6911,4.4403,2.0267
1.8148,1.7655,1.0347,1.3717,1.686,4.4187,2.0151
1.9079,1.7672,1.0373,1.3679,1.6798,4.3995,2.0025
1.9758,1.7489,1.0554,1.3667,1.6827,4.3996,1.9943
2.0252,1.7243,1.0742,1.3564,1.6924,4.4112,1.9895
2.0947,1.6959,1.0955,1.3504,1.6957,4.4235,1.9849
2.1788,1.6661,1.1053,1.3461,1.6944,4.4352,1.9793
2.2401,1.647,1.1196,1.3365,1.6884,4.4443,1.9688
2.2873,1.6345,1.1446,1.3247,1.6815,4.4523,1.9567
2.3209,1.6306,1.1629,1.3095,1.6765,4.4596,1.9412
2.3444,1.6368,1.1814,1.2967,1.6754,4.4476,1.9045
2.3642,1.6439,1.2017,1.2891,1.6758,4.4177,1.8274
2.3787,1.6426,1.2248,1.2917,1.6658,4.3325,1.7399
2.3883,1.6365,1.2482,1.2986,1.6521,4.2366,1.6762
2.39,1.6334,1.2652,1.3019,1.646,4.1929,1.6498
2.3859,1.6324,1.2711,1.291,1.6416,4.1657,1.6521
2.3674,1.6304,1.2704,1.2695,1.6371,4.1561,1.6447
2.3402,1.6289,1.2781,1.2539,1.6325,4.1554,1.6301
2.3251,1.6171,1.2919,1.2476,1.6225,4.1563,1.6925
2.3178,1.6085,1.3019,1.2466,1.6086,4.1545,1.8119
2.3197,1.585,1.306,1.2424,1.5984,4.1536,1.8999
2.3356,1.5372,1.3073,1.2444,1.5785,4.1536,1.9757
2.3543,1.5008,1.3099,1.2608,1.5501,4.1479,2.0743
2.3688,1.4787,1.3198,1.2855,1.5279,4.1422,2.1779
2.3802,1.4672,1.3332,1.3083,1.5132,4.138,2.2534
2.3955,1.4573,1.3415,1.3248,1.4996,4.1376,2.3057
2.4136,1.4501,1.3475,1.3369,1.4925,4.1579,2.3413
2.4268,1.4477,1.358,1.3473,1.5147,4.2583,2.3741
2.439,1.4354,1.3702,1.3548,1.5393,4.2736,2.4049
2.4479,1.4096,1.373,1.3442,1.5326,4.1588,2.4247
2.4807,1.3908,1.3735,1.3237,1.5166,4.074,2.4392
2.5335,1.3819,1.3785,1.3087,1.5078,4.0134,2.4514
3.1474,1.6105,1.4895,1.7589,1.7941,4.5173,2.0991
3.1633,1.6157,1.4895,1.7684,1.7893,4.5131,2.1021
3.1914,1.6285,1.4895,1.7835,1.7858,4.5095,2.1276
3.1993,1.6417,1.4881,1.7935,1.7881,4.5084,2.1655
3.1339,1.6396,1.4783,1.7972,1.7861,4.5089,2.1969
3.0211,1.6264,1.4624,1.7975,1.7799,4.5112,2.2244
2.9343,1.6168,1.461,1.7989,1.773,4.511,2.249
2.8757,1.6085,1.4716,1.8035,1.7517,4.4127,2.2724
2.8354,1.6077,1.4807,1.8103,1.7251,4.2429,2.2912
2.7933,1.6084,1.4902,1.8153,1.6991,4.1275,2.3086
2.7403,1.5996,1.5039,1.8357,1.6697,4.0496,2.3248
2.6918,1.5892,1.5195,1.8728,1.6497,3.9907,2.334
2.6695,1.6023,1.5322,1.902,1.6377,3.9477,2.3222
2.6849,1.6314,1.5414,1.9102,1.6303,3.9158,2.2751
2.7333,1.6513,1.5427,1.9063,1.6236,3.8948,2.2077
2.7908,1.6608,1.5281,1.9067,1.6174,3.8807,2.1586
2.8362,1.6588,1.5001,1.9003,1.6129,3.8687,2.1323
2.8693,1.6548,1.4738,1.8888,1.6096,3.8605,2.11
2.8912,1.6519,1.4546,1.8663,1.6112,3.8666,2.1028
2.9043,1.6485,1.4406,1.8372,1.6214,3.883,2.1098
2.8954,1.6421,1.4304,1.8195,1.6288,3.895,2.115
2.8712,1.6335,1.4184,1.8055,1.6304,3.9031,2.1157
2.8475,1.6325,1.4097,1.7964,1.6341,3.9004,2.1081
2.8264,1.6369,1.4094,1.791,1.5873,3.7231,2.1096
2.8102,1.6415,1.4107,1.7871,1.509,3.4249,2.1217
2.7757,1.6342,1.4117,1.7794,1.4585,3.2053,2.1325
2.7001,1.6171,1.4108,1.769,1.42,3.0388,2.1433
2.6073,1.5936,1.4026,1.7502,1.3904,2.8905,2.1502
2.5289,1.5581,1.3857,1.7188,1.3689,2.755,2.1463
2.4653,1.5264,1.3686,1.6907,1.3532,2.6382,2.12
2.4087,1.5004,1.3513,1.6676,1.3368,2.5421,2.0799
2.3599,1.477,1.3339,1.6414,1.3183,2.4694,2.0409
2.3383,1.4716,1.3161,1.6114,1.3081,2.4136,2.0082
2.3464,1.4793,1.2982,1.5724,1.3073,2.3767,1.9843
2.3622,1.4792,1.2851,1.5339,1.3034,2.345,1.9389
2.3629,1.4719,1.2756,1.5059,1.2956,2.3097,1.8778
2.3526,1.4666,1.2617,1.4884,1.2949,2.2713,1.8219
2.3488,1.4627,1.2464,1.4801,1.3009,2.2356,1.7749
2.3469,1.4599,1.2224,1.4783,1.3084,2.1572,1.734
2.3401,1.4593,1.1959,1.477,1.3107,2.0429,1.7118
2.3296,1.4469,1.1877,1.4718,1.3026,1.9609,1.7148
2.3192,1.4258,1.2009,1.468,1.29,1.8873,1.7133
2.3116,1.4151,1.2193,1.442,1.2791,1.8199,1.7073
2.3024,1.4163,1.2276,1.3999,1.2712,1.7656,1.7028
2.2775,1.3981,1.2387,1.3741,1.2705,1.7195,1.7009
2.2288,1.3679,1.2518,1.3602,1.2699,1.6912,1.7092
2.151,1.3524,1.2613,1.3501,1.2662,1.6598,1.7299
2.0587,1.3412,1.2683,1.3427,1.2669,1.6289,1.7401
1.9915,1.3314,1.2734,1.3373,1.2739,1.6051,1.7329
1.9519,1.3226,1.2771,1.3285,1.2888,1.5863,1.7228
1.9264,1.3178,1.2797,1.3156,1.298,1.5458,1.6999
1.9214,1.316,1.2817,1.2977,1.2916,1.4852,1.6676
1.9277,1.3194,1.2958,1.2847,1.282,1.4428,1.6495
1.9222,1.3267,1.3308,1.282,1.2767,1.415,1.6603
1.9071,1.3272,1.3682,1.28,1.2728,1.3883,1.6822
1.8916,1.3212,1.3954,1.2835,1.2683,1.3591,1.678
1.8814,1.3508,1.4108,1.2958,1.2564,1.3362,1.6649
1.8885,1.4133,1.4132,1.3111,1.2608,1.3195,1.6566
1.9404,1.4588,1.4333,1.319,1.284,1.3074,1.6454
2.0225,1.4907,1.4721,1.3201,1.2994,1.2985,1.6373
2.0909,1.5443,1.5004,1.3143,1.3089,1.2921,1.6326
2.1444,1.6191,1.5249,1.3019,1.3111,1.2823,1.6293
2.1888,1.6919,1.5482,1.2895,1.3078,1.2701,1.6228
2.2321,1.7528,1.5651,1.2788,1.3071,1.2612,1.6155
2.2572,1.787,1.5774,1.271,1.3015,1.2548,1.6167
2.2416,1.8029,1.5824,1.2653,1.2909,1.2449,1.6229
2.2109,1.8156,1.5834,1.2611,1.3068,1.2393,1.646
2.1846,1.8261,1.5907,1.2727,1.3629,1.2489,1.6862
2.1624,1.8337,1.6065,1.3035,1.4248,1.2689,1.7202
2.1522,1.8437,1.6269,1.3452,1.4686,1.2883,1.7402
2.1488,1.8556,1.6553,1.3829,1.4978,1.3025,1.7501
2.1453,1.8643,1.6859,1.4062,1.5218,1.3144,1.7801
2.1506,1.8794,1.7045,1.4273,1.5536,1.3231,1.8406
2.1623,1.9358,1.7045,1.4471,1.5921,1.3516,1.9037
2.2003,2.033,1.7044,1.4816,1.6289,1.3905,1.9537
2.261,2.1231,1.7131,1.5271,1.6581,1.4131,1.9911
2.3215,2.1915,1.7146,1.5562,1.6782,1.4237,2.0194
2.3708,2.2413,1.7132,1.5788,1.6928,1.4256,2.0318
2.399,2.2758,1.717,1.6004,1.7071,1.427,2.0368
2.4196,2.3098,1.7272,1.6122,1.7212,1.4295,2.0486
2.4303,2.3434,1.7394,1.6183,1.7278,1.4442,2.0643
2.4364,2.3713,1.7495,1.6227,1.7252,1.4745,2.0788
2.4434,2.3969,1.7569,1.6259,1.7246,1.4994,2.0853
2.4485,2.438,1.7658,1.6309,1.7398,1.5175,2.095
2.4514,2.513,1.7662,1.6305,1.7604,1.5348,2.1061
2.4535,2.5896,1.7469,1.6251,1.7743,1.5474,2.0938
2.4593,2.6446,1.7292,1.6212,1.7844,1.5566,2.0777
2.4669,2.6937,1.7226,1.6129,1.7917,1.5646,2.0713
2.4767,2.718,1.7214,1.5975,1.7982,1.5717,2.0624
2.4813,2.7142,1.7243,1.5808,1.786,1.577,2.056
2.4491,2.7115,1.7059,1.5714,1.7639,1.5808,2.0523
2.3922,2.7219,1.676,1.5894,1.7577,1.5836,2.0507
2.36,2.7224,1.6596,1.6523,1.758,1.5856,2.0526
2.3505,2.7064,1.6436,1.7284,1.7618,1.587,2.0571
2.3482,2.6883,1.6266,1.7892,1.767,1.5921,2.0634
2.3437,2.6759,1.6143,1.8379,1.7684,1.6036,2.0701
2.3554,2.6741,1.6093,1.8776,1.7694,1.6197,2.0739
2.3721,2.6696,1.6096,1.9098,1.7702,1.634,2.0736
2.3702,2.6623,1.6099,1.9322,1.7495,1.6432,2.0577
2.3724,2.657,1.606,1.9398,1.6981,1.6447,2.0335
2.3766,2.654,1.6059,1.9278,1.6443,1.6406,2.0169
2.3744,2.6493,1.6124,1.8996,1.6107,1.6491,2.0315
2.3692,2.6554,1.6051,1.8685,1.5918,1.6667,2.0717
2.3654,2.6726,1.5877,1.846,1.5725,1.6832,2.0688
2.3544,2.6795,1.5737,1.8259,1.5411,1.694,2.0136
2.34,2.6494,1.5662,1.8077,1.5006,1.6774,1.9528
2.2964,2.5772,1.5522,1.7859,1.4586,1.6459,1.9038
2.2264,2.4996,1.5295,1.7498,1.4234,1.6243,1.8668
2.154,2.4365,1.5241,1.712,1.3944,1.6139,1.8435
2.0838,2.3906,1.5422,1.6804,1.3685,1.6103,1.8405
2.049,2.3736,1.5659,1.6535,1.3447,1.6117,1.8383
2.0482,2.3667,1.5794,1.6325,1.3207,1.6113,1.8227
2.056,2.3563,1.5838,1.6159,1.2998,1.5935,1.803
2.0616,2.3479,1.5897,1.6051,1.2879,1.5564,1.7837
2.0626,2.338,1.5967,1.5972,1.2793,1.5178,1.7793
2.055,2.311,1.6004,1.5888,1.2536,1.4851,1.7748
2.0485,2.2511,1.6071,1.5827,1.2206,1.4552,1.7656
2.0479,2.1913,1.6159,1.5836,1.1946,1.4304,1.765
2.0475,2.1488,1.6103,1.5922,1.1794,1.4059,1.756
2.0472,2.1062,1.5942,1.6037,1.1757,1.3834,1.7408
2.0385,2.0699,1.577,1.6134,1.1888,1.3717,1.731
2.0227,2.0477,1.5631,1.6204,1.217,1.3726,1.7227
2.0069,2.0294,1.5571,1.6203,1.236,1.3778,1.7153
2.0049,2.0224,1.5528,1.5927,1.2363,1.3801,1.7087
2.0034,2.032,1.5496,1.5107,1.2279,1.3787,1.6975
1.9896,2.039,1.5473,1.4098,1.2147,1.3808,1.6843
1.9795,2.042,1.5497,1.3343,1.2014,1.3868,1.6896
1.9755,2.0421,1.5661,1.2954,1.1954,1.3867,1.7096
1.9522,2.037,1.5847,1.2779,1.191,1.382,1.7313
1.9116,2.0333,1.5943,1.2617,1.1878,1.3801,1.7531
1.8913,2.0316,1.6013,1.2499,1.1891,1.3802,1.7689
1.8913,2.0467,1.6064,1.2379,1.1864,1.3803,1.7757
1.9014,2.0729,1.5995,1.2273,1.1734,1.3758,1.7748
1.9098,2.092,1.5836,1.2348,1.1506,1.3597,1.7462
1.9126,2.0897,1.5775,1.2603,1.1281,1.3383,1.6946
1.9158,2.0716,1.5731,1.2883,1.1158,1.316,1.6515
1.9192,2.0575,1.5657,1.3179,1.1067,1.2947,1.6174
1.9304,2.0461,1.5577,1.3485,1.0982,1.2774,1.5897
1.9461,2.0378,1.549,1.3632,1.092,1.2631,1.5805
1.9575,2.0328,1.5455,1.3617,1.0855,1.266,1.586
1.9764,2.0455,1.5373,1.3607,1.0767,1.2749,1.586
2.0036,2.1003,1.5111,1.3583,1.0743,1.2765,1.5709
2.0592,2.164,1.4787,1.3535,1.0842,1.2743,1.5544
2.1457,2.2078,1.4536,1.3484,1.0972,1.2677,1.5589
2.2229,2.2405,1.4354,1.3446,1.1226,1.2646,1.5742
2.2766,2.2626,1.4189,1.3419,1.152,1.264,1.5918
2.32,2.2796,1.4039,1.3415,1.1683,1.2686,1.6187
2.3552,2.2892,1.3882,1.349,1.1853,1.2768,1.6659
2.3747,2.2793,1.3656,1.3607,1.2029,1.2845,1.7159
2.3889,2.2628,1.3426,1.363,1.2174,1.2933,1.7522
2.4019,2.2555,1.3242,1.352,1.2245,1.3013,1.7821
2.4182,2.2503,1.3236,1.336,1.2228,1.3056,1.8129
2.4657,2.4113,1.3421,1.3276,1.2033,1.3021,1.8409
2.5296,2.7744,1.3617,1.3263,1.1665,1.2896,1.8592
2.6235,3.2268,1.3759,1.3254,1.1416,1.2887,1.8735
2.7607,3.6594,1.3818,1.331,1.1333,1.3074,1.884
2.9037,3.988,1.386,1.346,1.1454,1.3333,1.918
3.0266,4.25,1.4163,1.3615,1.1704,1.3538,1.9682
3.1389,4.4549,1.457,1.3666,1.1936,1.3579,1.9882
3.2436,4.6113,1.4699,1.3563,1.214,1.3532,1.9903
3.3162,4.7249,1.4666,1.3407,1.2271,1.3417,1.9865
3.3728,4.8093,1.4755,1.342,1.2417,1.3252,1.9837
3.4194,4.8712,1.4933,1.3571,1.2573,1.3064,1.9955
3.4628,4.91,1.5063,1.3711,1.2734,1.2894,2.0254
3.5039,4.9319,1.5157,1.3828,1.29,1.2787,2.0643
3.5338,4.9474,1.5171,1.3837,1.3022,1.264,2.0897
3.5603,4.96,1.5067,1.3703,1.3094,1.2463,2.1187
3.6042,4.9721,1.4991,1.3621,1.313,1.2387,2.2526
3.6562,4.9927,1.4979,1.3578,1.322,1.2401,2.4548
3.7239,5.0216,1.4999,1.3483,1.341,1.2494,2.6195
3.8161,5.0455,1.5055,1.3461,1.3623,1.2629,2.7554
3.8959,5.0625,1.5083,1.3493,1.3809,1.2573,2.8645
3.9493,5.0787,1.5031,1.3637,1.4088,1.2397,2.9494
3.9867,5.0795,1.4937,1.3863,1.4419,1.2269,3.0112
3.9991,5.0634,1.4868,1.4043,1.4619,1.2157,3.0642
3.9779,5.0496,1.4833,1.4202,1.4736,1.2146,3.1074
3.9494,5.0429,1.4821,1.4333,1.4706,1.2191,3.1376
3.9286,5.0427,1.4813,1.4414,1.4553,1.2257,3.1648
3.9135,5.0421,1.4807,1.4444,1.4426,1.2357,3.188
3.9074,5.0395,1.4816,1.4391,1.4258,1.243,3.1942
3.9079,5.0368,1.4838,1.4293,1.4073,1.2483,3.1936
3.9147,5.0344,1.4978,1.4282,1.3939,1.2521,3.1964
3.9325,5.0327,1.5204,1.4347,1.3887,1.2599,3.1965
3.9476,5.0314,1.5259,1.4467,1.3956,1.2721,3.1932
3.9348,4.9279,1.5146,1.4612,1.4124,1.2952,3.1875
3.9059,4.6733,1.4962,1.4773,1.4305,1.3245,3.1833
3.8505,4.263,1.4828,1.4946,1.4437,1.3333,3.1823
3.7463,3.8026,1.4901,1.5072,1.4533,1.3207,3.1835
3.6185,3.4109,1.5026,1.5164,1.4484,1.2997,3.1682
3.5046,3.0705,1.4854,1.5245,1.4331,1.2794,3.1469
3.3928,2.7856,1.4492,1.5331,1.4173,1.2663,3.1396
3.2797,2.5573,1.4212,1.5353,1.4073,1.2585,3.1336
3.1988,2.392,1.4009,1.5313,1.4062,1.2675,3.1265
3.1363,2.2672,1.373,1.5169,1.3992,1.2951,3.1158
3.0792,2.1785,1.3396,1.495,1.388,1.3214,3.0991
3.0162,2.1161,1.3203,1.4834,1.375,1.3451,3.0834
2.9524,2.0728,1.3161,1.4779,1.3609,1.3668,3.072
2.9059,2.0808,1.3179,1.468,1.3506,1.3842,3.0665
2.8743,2.1341,1.3209,1.4693,1.3494,1.4206,3.1198
2.8228,2.1887,1.3181,1.4703,1.3532,1.4642,3.1503
2.7593,2.2182,1.3161,1.4596,1.3545,1.4905,3.1059
2.6587,2.225,1.3163,1.4487,1.349,1.5056,3.0592
2.5074,2.2336,1.3165,1.4363,1.3371,1.5111,3.0032
2.377,2.2428,1.323,1.4333,1.3268,1.5259,2.9452
2.2913,2.2399,1.3309,1.4295,1.3056,1.5489,2.8991
2.2371,2.2284,1.3382,1.4208,1.2767,1.5656,2.8678
2.1852,2.2161,1.3435,1.416,1.2538,1.5765,2.8358
2.1338,2.2012,1.3474,1.4125,1.2353,1.5791,2.8124
2.0954,2.1825,1.3487,1.4144,1.2219,1.5888,2.8024
2.0663,2.1639,1.3464,1.4262,1.2121,1.6025,2.8048
2.0606,2.1513,1.3479,1.4462,1.2068,1.6073,2.8074
2.068,2.1442,1.3538,1.4678,1.2064,1.6108,2.798
2.0714,2.1439,1.358,1.4849,1.2096,1.6133,2.7849
2.0859,2.1477,1.3611,1.4932,1.2138,1.6254,2.8049
2.0934,2.1495,1.3648,1.4936,1.2114,1.6445,2.855
2.0868,2.1576,1.3691,1.4925,1.199,1.6583,2.8915
2.0861,2.1712,1.3707,1.4874,1.1789,1.6582,2.9181
2.0896,2.1812,1.3703,1.4749,1.1566,1.6466,2.9375
2.0972,2.1846,1.3654,1.4629,1.1325,1.6355,2.9495
2.1156,2.1842,1.357,1.4629,1.109,1.6313,2.959
2.1591,2.1877,1.3493,1.4701,1.0918,1.6322,2.9708
2.2409,2.198,1.3421,1.4754,1.0853,1.6354,2.9816
2.3255,2.2177,1.3369,1.4792,1.0922,1.6403,2.9894
2.3921,2.2367,1.3331,1.4835,1.0973,1.6439,2.9979
2.448,2.2615,1.3287,1.4865,1.1028,1.636,3.0125
2.4879,2.2968,1.3239,1.4859,1.1163,1.6143,3.0286
2.5187,2.326,1.3188,1.4841,1.1279,1.5985,3.0384
2.5531,2.3473,1.3134,1.4769,1.1418,1.5911,3.0328
2.5941,2.3628,1.3095,1.4658,1.1573,1.5897,3.0175
2.6302,2.3416,1.3083,1.4578,1.1704,1.5967,3.0028
2.6526,2.2776,1.309,1.4444,1.1745,1.5838,2.9103
2.6721,2.2053,1.3112,1.4271,1.1722,1.5524,2.7409
2.7024,2.1377,1.3095,1.4145,1.1668,1.5409,2.5914
2.7366,2.0742,1.3034,1.4053,1.1592,1.5477,2.4872
2.7623,2.0246,1.2989,1.3939,1.1573,1.5581,2.419
2.7787,1.9985,1.3005,1.3746,1.1578,1.5547,2.3684
2.7839,1.9669,1.319,1.3474,1.1582,1.5384,2.3306
2.7739,1.9282,1.3508,1.321,1.151,1.5266,2.303
2.7635,1.9046,1.3739,1.3017,1.1382,1.5208,2.2942
2.7606,1.8943,1.3848,1.2877,1.127,1.5179,2.2848
2.757,1.8902,1.3943,1.2723,1.1188,1.5043,2.2639
2.7642,1.8928,1.4042,1.2506,1.1128,1.4829,2.2247
2.7694,1.9364,1.4201,1.222,1.1123,1.4627,2.1804
2.7587,2.0072,1.4375,1.1919,1.1176,1.4435,2.1563
2.7578,2.0588,1.4474,1.168,1.127,1.428,2.1418
2.7477,2.0856,1.4396,1.1506,1.1376,1.4007,2.0799
2.7216,2.1062,1.4205,1.1454,1.1435,1.3615,1.9805
2.705,2.1299,1.4186,1.1436,1.1477,1.3261,1.9044
2.6921,2.1473,1.4307,1.1347,1.1508,1.2986,1.8551
2.6795,2.1637,1.4424,1.132,1.1603,1.2934,1.829
2.6639,2.1805,1.4509,1.1357,1.1743,1.3062,1.8274
2.6773,2.2157,1.4422,1.1228,1.1845,1.3123,1.8392
2.6991,2.2607,1.424,1.0894,1.192,1.3119,1.8397
2.6796,2.2909,1.4167,1.0629,1.2059,1.3117,1.8273
2.6558,2.3083,1.4291,1.0479,1.2195,1.3131,1.8087
2.6578,2.3237,1.4567,1.0328,1.2295,1.3205,1.7903
2.6758,2.3285,1.5142,1.028,1.235,1.3541,1.817
2.7117,2.323,1.5878,1.0328,1.2305,1.4022,1.8895
2.772,2.3208,1.6426,1.0517,1.2254,1.4329,1.9534
2.8261,2.3174,1.6802,1.0827,1.2164,1.4468,2.0108
2.8569,2.3131,1.7099,1.1071,1.2184,1.4527,2.0605
2.8735,2.3062,1.7374,1.1249,1.2386,1.457,2.1052
2.8805,2.304,1.7575,1.1304,1.2599,1.4601,2.1455
2.8878,2.3097,1.7891,1.129,1.277,1.4638,2.1776
2.8872,2.3283,1.8378,1.1353,1.2878,1.4606,2.2121
2.8735,2.3525,1.885,1.1454,1.2941,1.4465,2.2373
2.8723,2.3838,1.9277,1.1667,1.2987,1.4317,2.3449
2.8826,2.4205,1.9849,1.2104,1.3068,1.4269,2.5199
2.893,2.4471,2.0396,1.27,1.316,1.4309,2.6509
2.9099,2.479,2.0687,1.331,1.3226,1.4561,2.7604
2.9229,2.5121,2.0909,1.3783,1.3291,1.4941,2.8457
2.9374,2.5379,2.1188,1.4315,1.3337,1.5204,2.9193
2.9579,2.5607,2.1544,1.5318,1.3371,1.5695,2.9992
2.986,2.6315,2.1906,1.646,1.3396,1.6363,3.0692
3.0169,2.7111,2.2198,1.7336,1.3492,1.6897,3.119
3.0354,2.7518,2.2493,1.8016,1.3683,1.7309,3.1749
3.0702,2.7904,2.3098,1.8544,1.3867,1.7609,3.2367
3.14,2.8185,2.3921,1.8961,1.4001,1.7839,3.2824
3.2261,2.8331,2.4712,1.9232,1.4143,1.804,3.3231
3.2998,2.8318,2.5368,1.9387,1.429,1.8233,3.3596
3.3518,2.8316,2.5807,1.95,1.444,1.8418,3.4205
3.389,2.836,2.6189,1.9561,1.4661,1.8496,3.4974
3.4203,2.8369,2.656,1.9606,1.4892,1.8497,3.5466
3.4175,2.8185,2.6869,1.967,1.5101,2.0201,3.5806
3.3856,2.7882,2.7281,1.9728,1.5334,2.3119,3.6107
3.3585,2.7646,2.7988,1.978,1.5476,2.5252,3.6594
3.3515,2.7403,2.8674,1.9829,1.5619,2.6826,3.7201
3.3502,2.713,2.9118,1.9918,1.5777,2.8027,3.7676
3.3327,2.6867,2.9271,2.0024,1.584,2.8826,3.785
3.3009,2.661,2.921,2.0102,1.5899,2.9354,3.7709
3.2476,2.655,2.9159,2.0158,1.5994,2.9814,3.7562
3.1992,2.6814,2.9136,2.0189,1.6102,3.0191,3.7425
3.1661,2.7235,2.9082,2.0212,1.6062,3.0519,3.732
3.1494,2.772,2.9094,2.0269,1.5913,3.0771,3.7267
3.1502,2.8109,2.9204,2.0353,1.5804,3.0962,3.7279
3.1595,2.8591,2.9168,2.0424,1.5711,3.1121,3.7517
3.1716,2.9057,2.8973,2.0445,1.5643,3.121,3.7841
3.2023,2.939,2.8748,2.0429,1.5608,3.1275,3.8567
3.2397,2.959,2.8524,2.0365,1.5622,3.1396,3.8997
3.2612,2.9672,2.8135,2.0213,1.5619,3.1538,3.8781
3.2769,2.9811,2.7663,1.996,1.5576,3.1634,3.8668
3.2832,2.979,2.732,1.9642,1.5559,3.159,3.8457
3.3235,2.9719,2.707,1.9366,1.5546,3.1477,3.8259
3.3971,2.9659,2.6823,1.9084,1.5537,3.1443,3.8013
3.4923,2.9637,2.6512,1.8343,1.553,3.1273,3.765
3.5783,2.9093,2.6194,1.7556,1.5539,3.0976,3.7346
3.6198,2.8083,2.5937,1.7253,1.5447,3.0754,3.7245
3.6484,2.7219,2.5682,1.7147,1.5225,3.0598,3.7177
3.641,2.659,2.5143,1.7069,1.4976,3.0492,3.7007
3.591,2.6284,2.4377,1.7001,1.4764,3.0478,3.6906
3.5324,2.6366,2.3576,1.7026,1.4565,3.0509,3.6809
3.489,2.7057,2.2833,1.713,1.4344,3.0504,3.6687
3.463,2.8184,2.2323,1.7255,1.412,3.0465,3.6431
3.4504,2.9375,2.19,1.7333,1.3778,3.0402,3.6079
3.451,3.0359,2.1468,1.7379,1.3397,3.0385,3.5804
3.4558,3.1153,2.1143,1.7412,1.3049,2.8694,3.5531
3.4611,3.1789,2.0766,1.7436,1.2671,2.5751,3.5277
3.4613,3.2327,1.9936,1.7404,1.2431,2.3746,3.484
3.4491,3.282,1.8987,1.7429,1.22,2.4452,3.4289
3.4315,3.3197,1.8283,1.7509,1.196,2.8834,3.3952
3.4149,3.3466,1.7718,1.7494,1.1878,3.3884,3.37
3.4103,3.368,1.7345,1.7459,1.1819,3.7581,3.3517
3.4356,3.3698,1.7125,1.7346,1.1757,4.0777,3.3434
3.4735,3.376,1.694,1.7177,1.1852,4.3591,3.3355
3.5034,3.3937,1.6804,1.7166,1.2079,4.5588,3.3259
3.5205,3.3962,1.6585,1.7208,1.221,4.7017,3.3111
3.5288,3.4004,1.628,1.7226,1.2237,4.8158,3.2893
3.5233,3.3869,1.6072,1.7276,1.224,4.9141,3.2547
3.5102,3.3575,1.596,1.73,1.2242,4.9956,3.2161
3.4845,3.3445,1.5906,1.7293,1.2244,5.063,3.1132
3.4415,3.3408,1.592,1.7239,1.2441,5.1234,2.9733
3.4057,3.3284,1.6036,1.7124,1.2796,5.1822,2.8811
3.3796,3.3123,1.6159,1.7003,1.3116,5.2334,2.814
3.3605,3.3038,1.6235,1.6914,1.338,5.2706,2.7651
3.3079,3.2931,1.6342,1.685,1.3572,5.3103,2.7238
3.2149,3.2904,1.6521,1.6699,1.3786,5.3502,2.6953
3.0792,3.2885,1.6689,1.6485,1.4001,5.423,2.6746
2.9304,3.2819,1.6908,1.6329,1.4157,5.5305,2.6497
2.822,3.2926,1.7247,1.6147,1.4271,5.6254,2.6484
2.7463,3.3105,1.7575,1.5906,1.434,5.7022,2.6539
2.7011,3.363,1.7814,1.5702,1.4375,5.7581,2.6525
2.717,3.4588,1.8,1.5511,1.4444,5.7956,2.6641
2.7709,3.5315,1.8158,1.5272,1.4538,5.8226,2.6789
2.8036,3.5405,1.8239,1.4994,1.4621,5.8483,2.6881
2.8317,3.4882,1.8216,1.4718,1.4738,5.8831,2.6837
2.8566,3.4096,1.8258,1.4516,1.4907,5.9215,2.6742
2.8571,3.3398,1.8391,1.4339,1.5112,5.9481,2.6697
2.847,3.2828,1.85,1.4209,1.5355,5.9654,2.6696
2.8442,3.2413,1.8487,1.4161,1.5572,5.986,2.6727
2.8489,3.2042,1.8339,1.4126,1.5608,6.021,2.6709
2.8726,3.1649,1.8135,1.3975,1.5513,5.9648,2.6657
2.9093,3.1369,1.795,1.374,1.5373,5.6866,2.6488
2.9402,3.1186,1.7828,1.3617,1.5215,5.3397,2.626
2.9543,3.1025,1.7739,1.4062,1.5156,5.0903,2.6119
2.9271,3.0894,1.785,1.5154,1.5128,4.8558,2.6057
2.8806,3.0458,1.8363,1.622,1.4932,4.6418,2.6052
2.8505,2.983,1.8964,1.6895,1.4642,4.5035,2.6049
2.8414,2.941,1.9329,1.7341,1.44,4.41,2.612
2.8828,2.9223,1.99,1.794,1.4269,4.3336,2.6243
2.9513,2.9312,2.0736,1.8605,1.4234,4.2609,2.649
2.9971,2.9456,2.1382,1.913,1.4209,4.2016,2.6802
3.0291,2.935,2.1853,1.9594,1.4236,4.1522,2.7015
3.0551,2.9061,2.2149,1.9974,1.4065,4.105,2.7052
3.0768,2.882,2.2254,2.025,1.3691,4.0545,2.6833
3.1086,2.8622,2.2302,2.0599,1.335,4.0112,2.6674
3.145,2.8447,2.2421,2.101,1.3051,3.9851,2.6679
3.1656,2.8335,2.2507,2.1329,1.2966,3.9518,2.6683
3.1761,2.8161,2.2448,2.1571,1.2989,3.9265,2.681
3.185,2.7928,2.2443,2.1748,1.294,3.8521,2.7029
3.2077,2.7765,2.2439,2.1729,1.2888,3.7123,2.7301
3.2549,2.752,2.2243,2.1539,1.2833,3.5788,2.7358
3.3043,2.7279,2.2014,2.137,1.2842,3.4677,2.7217
3.3403,2.6469,2.1846,2.1247,1.2899,3.3908,2.7114
3.3489,2.5181,2.1924,2.1197,1.2874,3.3601,2.6968
3.3298,2.4162,2.2211,2.1432,1.2951,3.4527,2.6885
3.3108,2.3332,2.242,2.1844,1.3153,3.6076,2.6841
3.2949,2.3049,2.26,2.2189,1.3252,3.6969,2.6604
3.2892,2.3168,2.2675,2.2468,1.323,3.7425,2.6211
3.3004,2.3325,2.2674,2.2654,1.3098,3.7757,2.6097
3.3131,2.3485,2.2664,2.2779,1.2884,3.8005,2.6178
3.3185,2.3521,2.2648,2.3006,1.2745,3.8074,2.6206
3.3167,2.3574,2.2673,2.3314,1.2695,3.775,2.6202
3.3129,2.371,2.2738,2.3574,1.2659,3.7301,2.615
3.3132,2.381,2.2813,2.378,1.265,3.6969,2.6096
3.3148,2.3891,2.2887,2.3896,1.2772,3.6674,2.604
3.314,2.4011,2.2931,2.3659,1.2944,3.6387,2.5908
3.3292,2.4117,2.2774,2.2981,1.3069,3.6059,2.5746
3.3485,2.4211,2.2264,2.2287,1.3207,3.5915,2.5653
3.365,2.4235,2.1733,2.1874,1.3664,3.7709,2.5804
3.3777,2.4157,2.144,2.1624,1.4468,4.0772,2.6037
3.3524,2.428,2.0852,2.1156,1.5131,4.3003,2.6159
3.3088,2.444,1.9928,2.0592,1.5589,4.4615,2.5972
3.275,2.442,1.9146,2.0182,1.5922,4.5777,2.5828
3.2484,2.444,1.8526,1.9804,1.6114,4.6623,2.6007
3.229,2.4566,1.8037,1.9472,1.6254,4.7174,2.6138
3.2129,2.476,1.7731,1.9208,1.6394,4.7493,2.6304
3.1828,2.4951,1.7533,1.8825,1.6484,4.7668,2.6393
3.1554,2.5246,1.7313,1.8355,1.6731,4.7791,2.6426
3.1519,2.5631,1.7102,1.8097,1.6999,4.7894,2.6514
3.1646,2.6013,1.7073,1.8101,1.7123,4.7853,2.6408
3.1858,2.6355,1.7052,1.8197,1.7297,4.773,2.6169
3.1927,2.6541,1.6912,1.8302,1.746,4.7646,2.5901
3.1701,2.6614,1.6758,1.8412,1.7579,4.7584,2.5501
3.1365,2.6595,1.6607,1.8493,1.7641,4.7534,2.5061
3.1086,2.6534,1.6484,1.8551,1.7663,4.7834,2.4696
3.0586,2.6221,1.6022,1.856,1.7727,4.8302,2.4321
2.9931,2.57,1.545,1.8277,1.7749,4.7786,2.3911
2.9394,2.5355,1.5169,1.7817,1.78,4.6675,2.3621
2.8902,2.485,1.4979,1.7444,1.7932,4.5925,2.3583
2.8381,2.4277,1.4841,1.7146,1.8028,4.5397,2.3821
2.7866,2.3869,1.4681,1.6941,1.811,4.4998,2.4046
2.746,2.3497,1.4564,1.6793,1.8181,4.4708,2.4133
2.7147,2.3273,1.4479,1.6481,1.8186,4.4511,2.4223
2.6968,2.3157,1.4402,1.6051,1.8155,4.4348,2.4314
2.6804,2.3044,1.4464,1.5737,1.8178,4.4243,2.438
2.6709,2.2962,1.4637,1.5633,1.8231,4.4167,2.4455
2.683,2.2976,1.4763,1.5681,1.8163,4.4059,2.4535
2.7043,2.3005,1.4855,1.5717,1.8007,4.3946,2.4618
2.719,2.3143,1.5033,1.5702,1.7893,4.3849,2.4705
2.7228,2.3492,1.5258,1.5691,1.7811,4.358,2.4742
2.7064,2.385,1.5353,1.5599,1.7441,4.0953,2.4532
2.6745,2.4103,1.5354,1.545,1.6748,3.6731,2.4202
2.6328,2.3916,1.5397,1.5584,1.613,3.368,2.3971
2.5925,2.3427,1.5442,1.5881,1.5888,3.258,2.3785
2.5774,2.309,1.5488,1.6097,1.5934,3.2752,2.3312
2.5707,2.2815,1.5536,1.6254,1.598,3.2826,2.2631
2.5756,2.2528,1.557,1.6382,1.6014,3.2931,2.2145
2.6033,2.2241,1.554,1.65,1.6039,3.3084,2.1862
2.6416,2.1972,1.5492,1.6599,1.607,3.3246,2.1696
2.6631,2.1623,1.5428,1.6683,1.59,3.3357,2.1463
2.6624,2.1245,1.5382,1.6655,1.5584,3.3407,2.116
2.6834,2.0918,1.539,1.6465,1.5369,3.3425,2.1459
2.722,2.0626,1.5395,1.6366,1.5153,3.3418,2.224
2.7418,2.0445,1.5413,1.6347,1.4938,3.3432,2.2774
2.751,2.0345,1.544,1.6282,1.4782,3.3487,2.3101
2.7584,2.0283,1.5404,1.6234,1.4668,3.3527,2.3277
2.7638,2.0249,1.5648,1.6238,1.4584,3.305,2.3388
2.7797,2.0255,1.6151,1.628,1.4596,3.2115,2.3441
2.815,2.0322,1.6418,1.6272,1.462,3.1326,2.3435
2.8553,2.037,1.6501,1.6227,1.4442,3.0685,2.3385
2.8882,2.0333,1.651,1.6233,1.4223,3.013,2.3171
2.9213,2.0178,1.653,1.6315,1.411,2.9726,2.2727
2.9539,2.0065,1.6645,1.6464,1.4028,2.9627,2.2345
2.9777,2.011,1.684,1.6584,1.4185,3.024,2.2309
2.9971,2.009,1.7056,1.6635,1.4532,3.1199,2.2546
3.0133,2.0147,1.7188,1.6709,1.4839,3.1904,2.2819
3,2.0386,1.7149,1.6801,1.5048,3.2329,2.3009
2.9464,2.0561,1.7021,1.6805,1.5201,3.2588,2.3147
2.8822,2.0657,1.7039,1.6745,1.538,3.2822,2.3239
2.8228,2.0728,1.7224,1.6662,1.5511,3.2985,2.327
2.7608,2.0612,1.7383,1.655,1.5552,3.3192,2.3219
2.7076,2.0193,1.7415,1.6416,1.5555,3.3406,2.3163
2.6729,1.9722,1.7389,1.6292,1.5676,3.3562,2.3178
2.6485,1.9389,1.7333,1.6175,1.5858,3.3713,2.318
2.6356,1.9054,1.7293,1.5952,1.5978,3.3786,2.3144
2.6431,1.8798,1.7337,1.5763,1.5845,3.2811,2.3191
2.6667,1.8705,1.7405,1.5736,1.553,3.1142,2.3307
2.6893,1.8683,1.7443,1.577,1.53,2.9926,2.3427
2.7209,1.8667,1.7471,1.5808,1.5204,2.8952,2.3542
2.7477,1.861,1.7597,1.5875,1.526,2.8153,2.3489
2.7522,1.8658,1.7953,1.5951,1.5356,2.7514,2.3342
2.7547,1.8751,1.838,1.6032,1.5425,2.6991,2.3262
2.7572,1.8784,1.8658,1.6117,1.5463,2.6755,2.3176
2.7204,1.8775,1.8828,1.6127,1.5543,2.7606,2.2421
2.6597,1.9105,1.8996,1.5986,1.5669,2.9077,2.1204
2.6172,1.9717,1.9193,1.5829,1.5761,3.0149,2.0318
2.5845,2.0252,1.9454,1.5771,1.5828,3.091,1.9685
2.5599,2.0728,1.9738,1.5768,1.5877,3.1548,1.9327
2.552,2.137,1.9696,1.5961,1.5913,3.2057,1.9159
2.5428,2.2096,1.9416,1.6256,1.583,3.2422,1.9082
2.5166,2.2554,1.9313,1.6568,1.5661,3.2838,1.9169
2.4958,2.2852,1.9371,1.6929,1.5659,3.3242,1.9373
2.4849,2.3069,1.9456,1.7192,1.5727,3.3585,1.9564
2.477,2.3435,1.9572,1.7348,1.5723,3.3884,1.9735
2.4687,2.3843,1.9677,1.7461,1.572,3.4003,1.9628
2.4591,2.4046,1.9624,1.7638,1.549,3.3453,1.9107
2.4513,2.4168,1.9488,1.795,1.5094,3.26,1.8394
2.4376,2.4042,1.9388,1.8235,1.4805,3.2062,1.7719
2.4329,2.3781,1.9403,1.8464,1.4727,3.1773,1.7228
2.4722,2.3637,1.9501,1.8642,1.4744,3.1583,1.683
2.5421,2.3533,1.9485,1.8761,1.4698,3.2259,1.6553
2.6047,2.3456,1.9285,1.8914,1.468,3.5558,1.6444
2.6495,2.341,1.9071,1.9069,1.4681,3.981,1.6469
2.6745,2.3385,1.8961,1.9182,1.4794,4.2977,1.6512
2.6856,2.3367,1.8881,1.9254,1.492,4.5482,1.6569
2.7,2.3487,1.8845,1.9306,1.4956,4.7511,1.6784
2.7128,2.3718,1.8819,1.9244,1.4982,4.9098,1.7145
2.7016,2.3815,1.872,1.9006,1.5001,5.021,1.7395
2.6926,2.3797,1.8648,1.874,1.5029,5.0993,1.7566
2.702,2.3775,1.8653,1.8547,1.5091,5.1547,1.7785
2.6805,2.376,1.8702,1.8406,1.505,5.1982,1.7932
2.6391,2.3879,1.8715,1.8303,1.4965,5.2363,1.8017
2.6115,2.4098,1.8586,1.824,1.5016,5.2708,1.8124
2.5913,2.4326,1.8411,1.8171,1.5096,5.3026,1.8249
2.5832,2.4483,1.8283,1.8096,1.5168,5.3195,1.8316
2.584,2.4546,1.8081,1.8054,1.5106,5.2762,1.8354
2.5812,2.4295,1.7788,1.8116,1.4948,5.2,1.8393
2.5833,2.3789,1.7499,1.822,1.4905,5.144,1.8467
2.5954,2.3372,1.7186,1.8249,1.4916,5.1011,1.8555
2.6075,2.3021,1.6892,1.8212,1.4911,5.063,1.8528
2.604,2.2408,1.6718,1.7954,1.4949,5.0288,1.8415
2.5901,2.17,1.663,1.7569,1.5005,5.0004,1.8392
2.5765,2.1532,1.6446,1.7157,1.5087,4.9694,1.8339
2.5557,2.1662,1.6137,1.6738,1.5133,4.9672,1.8346
2.5338,2.1756,1.5966,1.6538,1.522,5.1017,1.8578
2.5073,2.1573,1.5841,1.6499,1.5447,5.3073,1.8791
2.4767,2.1178,1.5641,1.6418,1.5652,5.4542,1.8936
2.4536,2.0911,1.5509,1.6184,1.5814,5.5598,1.9074
2.4331,2.0758,1.5427,1.5775,1.5984,5.637,1.9142
2.4182,2.0657,1.5476,1.5406,1.6095,5.6933,1.933
2.4109,2.0852,1.5553,1.5061,1.6058,5.7285,1.9638
2.3874,2.181,1.5501,1.4689,1.5964,5.7472,1.9862
2.3375,2.2982,1.5407,1.4372,1.5896,5.7055,1.9994
2.2897,2.3829,1.5339,1.4045,1.5951,5.4422,2.0027
2.3285,2.4878,1.5464,1.3807,1.6097,5.0711,2.0093
2.4305,2.6258,1.5903,1.3744,1.6203,4.7812,2.0214
2.5071,2.7673,1.6408,1.3746,1.6281,4.5373,2.0219
2.5583,2.8818,1.6916,1.3852,1.6337,4.3256,2.0051
2.5892,2.9607,1.7425,1.4106,1.6491,4.1528,1.9843
2.6069,3.0187,1.7796,1.4349,1.6753,4.0286,1.9735
2.5882,3.0624,1.8122,1.4483,1.6968,3.9381,1.9601
2.5445,3.0929,1.8405,1.458,1.7076,3.8723,1.9404
2.5186,3.119,1.8566,1.4694,1.7118,3.8214,1.926
2.5068,3.1361,1.8705,1.4734,1.7086,3.7768,1.92
2.4955,3.1351,1.8773,1.4721,1.6962,3.7344,1.9111
2.4813,3.1235,1.8721,1.4754,1.6821,3.6935,1.8956
2.4604,3.1102,1.8672,1.4806,1.6692,3.6637,1.8843
2.4425,3.0985,1.8682,1.4831,1.6699,3.642,1.8772
2.4418,3.0933,1.8734,1.4776,1.6818,3.6197,1.8992
2.455,3.0937,1.8761,1.4663,1.6868,3.607,1.9371
2.4706,3.092,1.8735,1.464,1.6879,3.6054,1.9636
2.4794,3.0907,1.8716,1.4737,1.6937,3.606,1.9861
2.4859,3.0952,1.8691,1.4865,1.698,3.6065,2.0024
2.4998,3.1006,1.8627,1.4971,1.6986,3.6074,2.0059
2.5133,3.0836,1.8592,1.5513,1.6952,3.6081,1.999
2.5321,3.056,1.8755,1.712,1.694,3.572,1.9763
2.5581,3.0379,1.8997,1.9113,1.6893,3.2549,1.9373
2.5936,3.0248,1.9107,2.0592,1.6705,2.7684,1.9043
2.6369,3.0159,1.9177,2.1634,1.6502,2.4126,1.8814
2.6722,3.0186,1.9261,2.2471,1.6328,2.1741,1.8739
2.7018,3.031,1.9354,2.3157,1.6147,1.9989,1.8776
2.7278,3.0422,1.9323,2.37,1.5975,1.849,1.8628
2.7415,3.0276,1.9333,2.4204,1.5917,1.7413,1.8334
2.7368,2.9443,1.9471,2.4645,1.5941,1.6629,1.8108
2.7303,2.8338,1.9583,2.5,1.5959,1.6028,1.7979
2.7279,2.7465,1.9675,2.5274,1.5905,1.5619,1.7921
2.6574,2.6324,1.9666,2.5441,1.5785,1.538,1.7794
2.5373,2.4678,1.9415,2.5514,1.5555,1.5234,1.7653
2.4507,2.2817,1.9073,2.555,1.5261,1.5142,1.7683
2.3858,2.1175,1.8655,2.551,1.5046,1.5089,1.7892
2.3432,1.9979,1.8169,2.5447,1.4769,1.5008,1.8079
2.3188,1.9207,1.7864,2.5469,1.4382,1.5004,1.8123
2.322,1.878,1.7776,2.5501,1.4053,1.5114,1.8121
2.354,1.8598,1.7809,2.5491,1.3829,1.5181,1.8084
2.3851,1.8737,1.7938,2.545,1.3666,1.516,1.8033
2.4253,1.9016,1.8031,2.5404,1.3498,1.5088,1.8361
2.4787,1.9251,1.8042,2.5362,1.3328,1.5036,1.8952
2.5248,1.9454,1.8097,2.5297,1.3268,1.4983,1.9383
2.5656,1.9686,1.8316,2.525,1.3305,1.4813,1.9708
2.5953,1.9949,1.8645,2.525,1.32,1.554,1.9954
2.6042,2.0099,1.8916,2.5224,1.3108,1.7188,1.9909
2.5942,2.0187,1.9157,2.518,1.3173,1.8457,1.9661
2.5745,2.0334,1.9343,2.519,1.3204,1.942,1.9717
2.5644,2.0572,1.9436,2.5206,1.3162,2.0247,1.9981
2.5603,2.0776,1.9471,2.5184,1.3082,2.0849,2.0164
2.5499,2.0924,1.9508,2.5365,1.3025,2.1269,2.0286
2.5672,2.117,1.9523,2.5471,1.2983,2.1575,2.0386
2.6036,2.1407,1.9344,2.4559,1.2815,2.1919,2.055
2.6246,2.1551,1.9034,2.2991,1.2608,2.2271,2.072
2.627,2.1656,1.8819,2.1714,1.2527,2.2555,2.0814
2.628,2.1732,1.8663,2.0795,1.2486,2.2763,2.1
2.75,1.7139,1.8875,2.4431,1.5712,2.7386,2.5187
2.75,1.7188,1.8863,2.45,1.5918,2.7633,2.5178
2.7621,1.7368,1.8833,2.4644,1.6274,2.8061,2.5197
2.7741,1.7487,1.8833,2.4706,1.657,2.8409,2.5245
2.762,1.7276,1.8911,2.4709,1.6871,2.8521,2.5279
2.7719,1.7494,1.9045,2.4771,1.7173,2.8154,2.528
2.8131,1.8217,1.9175,2.485,1.7429,2.7621,2.5046
2.9345,1.8733,1.926,2.4916,1.7615,2.6936,2.4942
3.1137,1.9055,1.9277,2.4973,1.775,2.6142,2.4964
3.2443,1.9248,1.9201,2.5014,1.7849,2.5573,2.4811
3.3435,1.9356,1.9135,2.5044,1.7776,2.5184,2.4575
3.4182,1.9498,1.9131,2.5057,1.7591,2.5005,2.427
3.4661,1.9739,1.9128,2.5101,1.7468,2.5029,2.4048
3.4975,1.9956,1.9115,2.5183,1.7329,2.5221,2.3913
3.5203,2.0115,1.9004,2.5251,1.7177,2.546,2.376
3.5364,2.024,1.8832,2.5326,1.7079,2.5626,2.3539
3.5504,2.0373,1.8707,2.5396,1.6983,2.5771,2.3351
3.5601,2.049,1.8616,2.544,1.6974,2.6694,2.3213
3.5741,2.0534,1.8549,2.5496,1.7257,2.8152,2.2882
3.592,2.0566,1.8395,2.5587,1.7639,2.9214,2.2409
3.6033,2.058,1.8188,2.5669,1.7826,3.0041,2.1909
3.6139,2.0538,1.805,2.5655,1.7881,3.0702,2.1391
3.6192,2.0465,1.7851,2.5578,1.7956,3.119,2.0981
3.6089,2.0413,1.7608,2.5489,1.7987,3.1546,2.0746
3.5944,2.0457,1.7328,2.539,1.7951,3.1772,2.0669
3.5502,2.0622,1.7023,2.5343,1.7924,3.1904,2.0582
3.4817,2.0742,1.68,2.5334,1.7796,3.1947,2.0487
3.4324,2.0738,1.6689,2.5048,1.7593,3.1919,2.045
3.3939,2.0725,1.6283,2.3718,1.7343,3.1839,2.0443
3.3729,2.0633,1.5672,2.1907,1.7059,3.1726,2.05
3.3652,2.044,1.5286,2.0588,1.6865,3.1624,2.0456
3.3494,2.0288,1.4945,1.9291,1.6724,3.1502,2.017
3.3296,2.0167,1.4636,1.7997,1.6622,3.1406,1.9863
3.3171,2.0004,1.4411,1.6903,1.6356,3.1018,1.9738
3.3207,1.9763,1.4262,1.5904,1.596,3.0372,1.9713
3.3361,1.95,1.4123,1.5162,1.5628,2.982,1.9694
3.3473,1.9341,1.3975,1.4604,1.5298,2.9172,1.967
3.3242,1.8639,1.3867,1.4083,1.4969,2.8539,1.9598
3.2728,1.7579,1.3725,1.3636,1.4699,2.8124,1.9535
3.1415,1.7094,1.3574,1.3344,1.4503,2.7854,1.9059
2.9484,1.6955,1.3464,1.3166,1.436,2.7727,1.8231
2.7971,1.6854,1.3302,1.3019,1.4315,2.7673,1.756
2.6725,1.6781,1.3067,1.2961,1.4268,2.7579,1.7164
2.5782,1.6662,1.2896,1.2969,1.4158,2.741,1.6968
2.5194,1.6471,1.2822,1.2891,1.4047,2.7151,1.6759
2.4784,1.6484,1.2768,1.2734,1.3951,2.6775,1.6515
2.444,1.6687,1.2729,1.2602,1.3881,2.6444,1.6297
2.4154,1.6822,1.2751,1.2453,1.383,2.6277,1.6138
2.3872,1.6871,1.2816,1.2309,1.3777,2.6164,1.5897
2.3593,1.6979,1.2863,1.2222,1.3577,2.4593,1.5553
2.3158,1.7205,1.2848,1.2245,1.2987,2.2016,1.5718
2.2842,1.7405,1.2804,1.2297,1.228,2.0153,1.6298
2.2796,1.7562,1.2789,1.2301,1.1589,1.8682,1.6709
2.2799,1.77,1.2761,1.2371,1.1086,1.7524,1.6984
2.302,1.7801,1.2773,1.2474,1.0853,1.6665,1.7172
2.3289,1.7827,1.2832,1.2565,1.0556,1.5995,1.7211
2.3414,1.7713,1.2859,1.2647,1.0275,1.5416,1.7252
2.3593,1.7723,1.2862,1.2657,1.007,1.4964,1.7427
2.3829,1.7957,1.2913,1.2615,0.99206,1.4634,1.7683
2.3975,1.843,1.295,1.2514,0.98117,1.444,1.7915
2.4116,1.9074,1.2928,1.2424,0.98999,1.4359,1.8051
2.4122,1.9574,1.2912,1.2428,1.0112,1.4344,1.8019
2.4065,2.0029,1.3028,1.2447,1.0246,1.4379,1.7841
2.4095,2.045,1.33,1.2478,1.0344,1.4403,1.7712
2.4116,2.0766,1.3558,1.2518,1.0395,1.4362,1.769
2.4123,2.0996,1.3972,1.2564,1.0412,1.4272,1.7625
2.3785,2.1154,1.4498,1.2614,1.0445,1.4191,1.7469
2.3176,2.1279,1.4881,1.2599,1.0489,1.4118,1.7317
2.2703,2.1341,1.512,1.2538,1.0501,1.4109,1.7181
2.2348,2.1501,1.5213,1.2494,1.0643,1.4087,1.7107
2.2129,2.1837,1.5294,1.2529,1.0955,1.4011,1.7103
2.1764,2.2035,1.5407,1.2621,1.1253,1.3956,1.715
2.1242,2.2076,1.549,1.2705,1.1623,1.3837,1.7385
2.1028,2.2191,1.5564,1.2831,1.2027,1.3796,1.7844
2.0998,2.234,1.5631,1.2922,1.2384,1.3949,1.819
2.1094,2.2486,1.5639,1.3082,1.277,1.4177,1.8398
2.1323,2.2774,1.5712,1.334,1.3341,1.4442,1.9091
2.1499,2.3057,1.607,1.3756,1.4038,1.4664,2.0082
2.1723,2.32,1.653,1.4287,1.4612,1.4682,2.0878
2.1981,2.334,1.683,1.4674,1.5031,1.4565,2.154
2.2315,2.3685,1.7,1.4956,1.5374,1.448,2.2032
2.2705,2.4101,1.7147,1.5214,1.569,1.4462,2.24
2.2997,2.4362,1.7279,1.5348,1.5983,1.4449,2.2362
2.2989,2.4518,1.7399,1.5324,1.6284,1.4396,2.2187
2.2732,2.4598,1.7558,1.5292,1.659,1.4312,2.2253
2.2517,2.4682,1.7721,1.5269,1.6763,1.422,2.2348
2.22,2.4802,1.7804,1.5252,1.6777,1.4154,2.2418
2.1811,2.4948,1.7817,1.5281,1.6813,1.4135,2.2459
2.1486,2.5203,1.7874,1.5344,1.6877,1.4211,2.2403
2.1209,2.5313,1.7997,1.5376,1.6936,1.4296,2.2277
2.1006,2.516,1.8122,1.5453,1.7003,1.4343,2.2136
2.0848,2.4827,1.8247,1.559,1.7102,1.4318,2.1994
2.0723,2.4363,1.8372,1.565,1.7098,1.424,2.193
2.0663,2.4061,1.8429,1.5626,1.7034,1.4122,2.211
2.0721,2.3976,1.8437,1.5595,1.7038,1.3974,2.2519
2.0924,2.4081,1.8407,1.5573,1.7053,1.3882,2.2898
2.116,2.4288,1.8386,1.557,1.7089,1.3846,2.3129
2.1332,2.4473,1.8226,1.5622,1.7164,1.3955,2.3262
2.1467,2.4616,1.7931,1.57,1.7243,1.4167,2.3358
2.1576,2.472,1.7704,1.5797,1.7325,1.4379,2.3491
2.1684,2.483,1.7526,1.592,1.7421,1.4533,2.3659
2.1829,2.4884,1.7383,1.6022,1.738,1.4603,2.3807
2.1926,2.4734,1.7217,1.6045,1.7202,1.461,2.3985
2.1948,2.4538,1.7045,1.5968,1.7021,1.4572,2.4158
2.2041,2.4439,1.7115,1.6066,1.6811,1.45,2.4143
2.204,2.4296,1.7351,1.6282,1.6593,1.4279,2.391
2.1905,2.413,1.7511,1.6389,1.6394,1.3928,2.3648
2.1559,2.408,1.7663,1.635,1.6209,1.3608,2.3421
2.1104,2.3971,1.775,1.6163,1.5846,1.3324,2.2773
2.0825,2.3711,1.7669,1.5815,1.5353,1.3066,2.1859
2.0526,2.3467,1.7562,1.5507,1.4979,1.2895,2.1103
2.0199,2.3279,1.7509,1.5383,1.4691,1.2771,2.0453
1.978,2.299,1.747,1.5279,1.4482,1.2611,2.0013
1.9304,2.2597,1.7417,1.5203,1.4329,1.2388,1.9727
1.8946,2.2241,1.7354,1.5258,1.4218,1.2154,1.9472
1.8673,2.2098,1.7283,1.5408,1.4211,1.1964,1.9065
1.8567,2.229,1.7194,1.5518,1.4222,1.2083,1.8652
1.8525,2.2542,1.7167,1.5543,1.4155,1.241,1.8411
1.8483,2.267,1.7196,1.5507,1.4106,1.2771,1.8236
1.8872,2.2782,1.723,1.5481,1.404,1.3128,1.8202
1.9537,2.2769,1.7205,1.5448,1.3946,1.3297,1.8282
1.9869,2.2696,1.7199,1.5411,1.3877,1.3389,1.8318
2.0029,2.2942,1.722,1.5269,1.3812,1.3487,1.8367
2.0389,2.332,1.7148,1.5052,1.3701,1.3589,1.8459
2.0809,2.3604,1.6942,1.4909,1.3589,1.3663,1.8481
2.1312,2.3767,1.6675,1.4819,1.3458,1.3718,1.8144
2.1811,2.3699,1.64,1.4796,1.3298,1.3772,1.7523
2.2174,2.339,1.6172,1.4934,1.3182,1.3797,1.7045
2.2503,2.3015,1.6114,1.5145,1.3097,1.3919,1.6683
2.2743,2.2771,1.624,1.5366,1.2985,1.3992,1.6472
2.2944,2.2612,1.6532,1.5606,1.287,1.3895,1.6437
2.3118,2.2562,1.6843,1.5741,1.2804,1.3746,1.632
2.3289,2.2573,1.7106,1.5826,1.2821,1.3573,1.6128
2.3459,2.2477,1.7436,1.5928,1.2915,1.3511,1.6055
2.3556,2.2407,1.7882,1.6016,1.3048,1.3529,1.6068
2.3635,2.2432,1.8306,1.6131,1.3192,1.3543,1.6078
2.3684,2.2441,1.8481,1.6095,1.3233,1.3537,1.6138
2.3666,2.2577,1.8486,1.5923,1.3134,1.3517,1.6246
2.3853,2.2947,1.8501,1.5811,1.2996,1.3518,1.6337
2.4207,2.3244,1.8477,1.5784,1.2844,1.3487,1.6391
2.4605,2.3355,1.839,1.5805,1.2699,1.3417,1.6418
2.5019,2.3408,1.8196,1.5752,1.2694,1.3429,1.6437
2.5345,2.3429,1.8018,1.559,1.2839,1.362,1.6464
2.5647,2.3453,1.7962,1.5415,1.3008,1.388,1.6496
2.6017,2.3706,1.7932,1.5288,1.3068,1.407,1.6468
2.6404,2.4125,1.7911,1.5124,1.3047,1.4193,1.6584
2.6955,2.4463,1.7989,1.4872,1.2965,1.4283,1.6869
2.7624,2.4616,1.8228,1.4746,1.2752,1.4406,1.7262
2.8054,2.4468,1.846,1.4786,1.2579,1.4312,1.7722
2.8309,2.422,1.8561,1.4816,1.2591,1.4081,1.8091
2.8646,2.4101,1.8635,1.488,1.2666,1.3897,1.8656
2.878,2.4014,1.8711,1.4912,1.2722,1.3731,1.928
2.8638,2.387,1.8767,1.4893,1.2745,1.3642,1.9683
2.8586,2.3684,1.8727,1.4908,1.2729,1.3562,1.9977
2.8696,2.3244,1.8596,1.4919,1.2717,1.3503,2.0098
2.8783,2.2682,1.85,1.4898,1.2726,1.3445,2.0124
2.8774,2.2223,1.8442,1.4869,1.2732,1.3449,2.0185
2.8647,2.1888,1.8411,1.4904,1.2801,1.3515,2.025
2.8359,2.1645,1.84,1.493,1.2917,1.361,2.0277
2.8056,2.1585,1.8357,1.4774,1.3049,1.3739,2.0233
2.8023,2.1814,1.8291,1.4542,1.3193,1.3708,2.0181
2.825,2.2066,1.8136,1.4373,1.3298,1.3546,2.0067
2.8423,2.223,1.7852,1.4234,1.3374,1.3428,1.9898
2.8548,2.2284,1.7584,1.4179,1.3429,1.3341,1.9764
2.8581,2.2248,1.735,1.4199,1.347,1.3279,1.9656
2.8545,2.2362,1.7037,1.4257,1.3484,1.3233,1.9476
2.8519,2.2511,1.658,1.4344,1.3478,1.3199,1.9152
2.8537,2.247,1.6234,1.4363,1.3474,1.3175,1.8823
2.8675,2.2373,1.6051,1.4288,1.3471,1.3174,1.8584
2.8892,2.2155,1.5877,1.4188,1.3484,1.3189,1.8409
2.8896,2.1683,1.5858,1.41,1.3494,1.3183,1.8282
2.8737,2.1237,1.5938,1.3958,1.3486,1.3147,1.8201
2.8484,2.0954,1.5984,1.3792,1.3526,1.3153,1.8119
2.8147,2.0768,1.6017,1.3671,1.3524,1.3141,1.8116
2.7878,2.0696,1.5933,1.3534,1.3444,1.2912,1.8197
2.7627,2.0643,1.5763,1.3387,1.3448,1.2661,1.8244
2.7421,2.0169,1.5626,1.3279,1.3515,1.2549,1.8279
2.7388,1.9457,1.5554,1.3201,1.3563,1.2467,1.8124
2.7226,1.8937,1.543,1.3144,1.3599,1.2407,1.7819
2.7047,1.8559,1.5093,1.3102,1.3561,1.2364,1.7585
2.71,1.832,1.4697,1.3072,1.3406,1.2332,1.7351
2.7131,1.8157,1.444,1.305,1.3176,1.2238,1.7078
2.6953,1.7991,1.4299,1.3034,1.2958,1.2025,1.6484
2.6697,1.7845,1.4256,1.3086,1.28,1.1738,1.5772
2.656,1.7788,1.4284,1.3188,1.2752,1.149,1.5314
2.6531,1.7758,1.4305,1.3247,1.2784,1.1309,1.4966
2.7026,1.783,1.4335,1.3274,1.2807,1.1158,1.4772
2.7805,1.7989,1.4581,1.3356,1.2824,1.1125,1.4645
2.8422,1.8293,1.4968,1.3478,1.2836,1.1101,1.4509
2.89,1.8649,1.525,1.3521,1.2795,1.1064,1.4526
2.9227,1.8909,1.5521,1.3521,1.2765,1.1038,1.4654
2.9465,1.8975,1.5771,1.3521,1.2793,1.096,1.479
2.9376,1.8679,1.582,1.3489,1.2814,1.0924,1.4917
2.911,1.8286,1.5737,1.3318,1.2956,1.0917,1.4996
2.8945,1.7987,1.5634,1.3062,1.3187,1.0931,1.5053
2.8788,1.7757,1.5532,1.2805,1.3309,1.0979,1.5095
2.8666,1.7589,1.5513,1.2494,1.3287,1.1034,1.5167
2.8615,1.7378,1.554,1.2136,1.3222,1.1016,1.538
2.8637,1.7137,1.556,1.178,1.3126,1.0944,1.5842
2.8615,1.6999,1.5462,1.1501,1.3007,1.095,1.64
2.8419,1.7036,1.5265,1.1356,1.2953,1.1069,1.6806
2.8192,1.721,1.5108,1.1308,1.293,1.1211,1.7055
2.8096,1.7373,1.4858,1.1274,1.2978,1.1314,1.7623
2.8034,1.7382,1.4542,1.1267,1.3078,1.1408,1.8435
2.7935,1.7341,1.4311,1.13,1.3086,1.1439,1.9027
2.7825,1.7323,1.4128,1.1415,1.3028,1.1425,1.9375
2.7805,1.7273,1.4025,1.1623,1.2917,1.1506,1.9587
2.7852,1.7415,1.3996,1.1878,1.2718,1.1565,1.9783
2.7787,1.7743,1.3991,1.2258,1.2589,1.159,2.0019
2.7529,1.816,1.4002,1.2678,1.2565,1.1681,2.0283
2.7262,1.8628,1.401,1.2938,1.2614,1.1817,2.0485
2.6903,1.8958,1.4075,1.295,1.2732,1.2052,2.0571
2.647,1.9187,1.4197,1.2828,1.2898,1.229,2.0521
2.6164,1.9376,1.43,1.2805,1.3083,1.2464,2.0596
2.599,1.9556,1.4375,1.2806,1.3218,1.2671,2.0813
2.5897,1.9708,1.4386,1.2705,1.3362,1.287,2.0901
2.5788,1.9787,1.435,1.2581,1.3451,1.3047,2.0926
2.5581,1.9834,1.4323,1.2558,1.3454,1.3222,2.0974
2.451,1.9761,1.4304,1.261,1.3457,1.3334,2.0958
2.3024,1.9598,1.4052,1.2579,1.3458,1.3337,2.0936
2.1952,1.9682,1.3614,1.2489,1.3506,1.3276,2.0941
2.1094,1.9966,1.3277,1.2424,1.3588,1.3165,2.0842
2.0423,2.0153,1.2889,1.2358,1.3585,1.3001,2.0676
1.9784,2.0288,1.2481,1.2293,1.3455,1.2915,2.0514
1.9259,2.0418,1.2221,1.2246,1.3345,1.2903,2.0353
1.8925,2.0593,1.2122,1.2212,1.3231,1.291,2.0236
1.8728,2.0802,1.2121,1.2204,1.3067,1.2932,2.014
1.8677,2.1031,1.2121,1.2216,1.2947,1.2931,2.007
1.8775,2.1306,1.2067,1.2224,1.2876,1.2915,1.9987
1.8846,2.1487,1.1974,1.2248,1.289,1.2886,1.9795
1.8808,2.16,1.1907,1.2299,1.2966,1.2832,1.943
1.8781,2.1711,1.1911,1.2354,1.3037,1.2724,1.899
1.8773,2.2041,1.2118,1.2393,1.3073,1.2542,1.8634
1.8686,2.2505,1.2404,1.2422,1.3083,1.2338,1.8386
1.8531,2.2852,1.2612,1.246,1.3091,1.2243,1.7755
1.8684,2.3131,1.2918,1.2555,1.3096,1.2244,1.6819
1.9539,2.3299,1.328,1.2673,1.3116,1.2296,1.6903
2.0637,2.3386,1.3674,1.2709,1.3098,1.2621,1.7898
2.1438,2.3413,1.409,1.2635,1.3052,1.3049,1.8738
2.21,2.3257,1.4393,1.2477,1.3019,1.3316,1.9309
2.2637,2.2966,1.4656,1.243,1.2928,1.3464,1.9674
2.3071,2.281,1.4833,1.2581,1.2795,1.3526,1.9919
2.3414,2.2754,1.4906,1.2983,1.2611,1.3524,2.0159
2.3655,2.2685,1.4903,1.3488,1.2459,1.3344,2.0314
2.3831,2.2682,1.4844,1.3842,1.2486,1.3148,2.0416
2.3924,2.2763,1.4742,1.4264,1.259,1.3056,2.0364
2.3948,2.2923,1.478,1.4777,1.2793,1.2921,2.019
2.3885,2.3102,1.4965,1.5292,1.3022,1.2773,2.0128
2.3795,2.3224,1.5072,1.5806,1.3203,1.3145,2.0082
2.3711,2.334,1.5137,1.6217,1.3628,1.5934,2.0028
2.3859,2.36,1.5382,1.6624,1.4167,2.0031,2.0164
2.4245,2.4438,1.5759,1.7041,1.4546,2.305,2.0399
2.4508,2.5311,1.6034,1.7355,1.4752,2.5256,2.055
2.465,2.5819,1.6234,1.7619,1.4848,2.697,2.068
2.4813,2.6299,1.6417,1.7892,1.4931,2.8386,2.0814
2.4965,2.664,1.6576,1.8148,1.5061,2.951,2.0982
2.5075,2.6881,1.6716,1.8519,1.5211,3.036,2.1231
2.5088,2.6979,1.6819,1.8963,1.532,3.0974,2.1528
2.5131,2.698,1.6856,1.9287,1.5704,3.1434,2.1783
2.523,2.691,1.6883,1.9616,1.6381,3.3542,2.1968
2.5201,2.6755,1.694,1.9949,1.7057,3.7463,2.2131
2.5112,2.6585,1.7019,2.0191,1.8234,4.1018,2.2288
2.509,2.6605,1.7088,2.0358,2.034,4.3824,2.2402
2.5108,2.6762,1.7114,2.0922,2.2637,4.6029,2.2485
2.5138,2.6569,1.6981,2.1831,2.7059,4.7644,2.2545
2.5176,2.6143,1.6822,2.2563,3.3614,4.882,2.2589
2.5171,2.5833,1.6857,2.3122,3.9132,4.9863,2.2612
2.5003,2.5812,1.6983,2.4011,4.323,5.0898,2.2628
2.4437,2.6273,1.717,2.5201,4.6341,5.1731,2.2026
2.4163,2.6996,1.7344,2.6128,4.8938,5.2295,2.0769
2.4466,2.781,1.7374,2.6803,5.11,5.2678,1.9671
2.4678,2.8634,1.7347,2.7287,5.2797,5.3056,1.8883
2.4833,2.9351,1.7278,2.7519,5.418,5.3487,1.8372
2.4971,2.9756,1.7301,2.7576,5.5301,5.389,1.8123
2.5004,2.9899,1.7427,2.7616,5.619,5.4214,1.7966
2.5045,3.0025,1.7519,2.7677,5.6896,5.469,1.7815
2.5126,3.006,1.7574,2.7751,5.7454,5.5293,1.7656
2.5184,3.0001,1.765,2.769,5.787,5.5755,1.7503
2.5193,2.9814,1.7607,2.769,5.8185,5.6096,1.7404
2.5208,2.962,1.748,2.7784,5.8414,5.6377,1.7699
2.5261,2.9537,1.7449,2.7783,5.8599,5.6485,1.8313
2.5316,2.9455,1.7426,2.7783,5.8697,5.5548,1.8876
2.5159,2.9285,1.7192,2.7745,5.8841,5.4033,1.92
2.4703,2.8564,1.6804,2.7701,5.9085,5.2981,1.9352
2.4458,2.7493,1.6521,2.7685,5.9291,5.2218,1.9632
2.4503,2.6574,1.6629,2.7704,5.9578,5.1805,1.995
2.4578,2.5938,1.7067,2.7733,5.9962,5.1608,2.0182
2.4684,2.5589,1.7456,2.7844,6.0336,5.1399,2.0289
2.4812,2.5318,1.775,2.7986,6.0667,5.1209,2.0253
2.5014,2.5138,1.7953,2.8059,6.0943,5.1132,2.0109
2.5127,2.5024,1.809,2.8128,6.1074,5.1144,2.022
2.5118,2.4958,1.8189,2.8133,6.1067,4.9833,2.0589
2.5145,2.4918,1.8227,2.8091,6.1016,4.679,2.1012
2.519,2.4889,1.8254,2.8076,6.0728,4.3715,2.1425
2.5147,2.4647,1.8399,2.8095,6.0014,4.1169,2.1689
2.5073,2.4322,1.8596,2.7736,5.9287,3.9073,2.1852
2.5053,2.4229,1.8749,2.7018,5.6957,3.7545,2.1962
2.5944,2.4628,1.8872,2.6419,5.2502,3.6452,2.206
2.7499,2.5291,1.8872,2.5983,4.8286,3.5327,2.217
2.8679,2.5836,1.8959,2.5105,4.5082,3.4019,2.225
2.9644,2.6105,1.9365,2.3978,4.2553,3.29,2.2271
3.0611,2.6582,1.9876,2.3373,4.0265,3.2027,2.2257
3.1418,2.7272,2.0627,2.33,3.8241,3.1327,2.2238
3.2001,2.7584,2.1537,2.3475,3.6549,3.0625,2.2204
3.2469,2.7706,2.2227,2.3639,3.5048,2.9806,2.2092
3.276,2.7735,2.272,2.3828,3.3762,2.9016,2.1853
3.2991,2.7763,2.3149,2.3876,3.2719,2.8393,2.1599
3.3128,2.7814,2.3566,2.3752,3.183,2.7963,2.1383
3.3195,2.7941,2.3904,2.3634,3.1038,2.8449,2.1236
3.3289,2.8161,2.4125,2.3548,3.0512,2.96,2.1159
3.3402,2.8394,2.426,2.3337,3.015,3.0459,2.1063
3.3477,2.8535,2.4358,2.3119,2.9822,3.1046,2.0577
3.3656,2.8601,2.4421,2.3007,2.9545,3.1414,1.9801
3.3985,2.8671,2.4459,2.286,2.9329,3.1663,1.9102
3.4291,2.8744,2.4494,2.2724,2.8928,3.1719,1.8507
3.4674,2.9141,2.4538,2.2597,2.8368,3.1706,1.8172
3.4954,2.9781,2.4569,2.2561,2.7937,3.177,1.7915
3.4996,3.0234,2.4398,2.2572,2.7335,3.1563,1.7579
3.4961,3.0434,2.4013,2.2524,2.6493,3.1132,1.7321
3.5031,3.0791,2.3649,2.2364,2.5593,3.0915,1.7271
3.5739,3.1467,2.3375,2.2081,2.4791,3.0869,1.7508
3.6805,3.2049,2.3321,2.1795,2.4159,3.0759,1.7857
3.8211,3.2947,2.3499,2.18,2.3661,3.0574,1.7861
3.9826,3.4081,2.3691,2.2018,2.328,3.0223,1.7615
4.1002,3.4958,2.3849,2.2186,2.2963,2.9771,1.7281
4.1898,3.5693,2.4032,2.2309,2.2714,2.9464,1.6935
4.2631,3.6412,2.421,2.2435,2.2493,2.9285,1.6736
4.3563,3.722,2.4365,2.2602,2.193,2.9206,1.6693
4.4618,3.7927,2.4529,2.276,2.0707,2.9148,1.6765
4.4923,3.8197,2.4716,2.2912,1.9431,2.9106,1.6878
4.4772,3.8193,2.4894,2.3049,1.8554,2.9134,1.701
4.4701,3.8008,2.4844,2.3283,1.7915,2.9176,1.7095
4.4452,3.7676,2.4398,2.3417,1.7502,2.9199,1.7156
4.3744,3.6949,2.3768,2.3232,1.7038,2.9216,1.7201
4.2822,3.5967,2.2858,2.2709,1.6484,2.9236,1.7422
4.2088,3.5283,2.1776,2.2068,1.6081,2.9264,1.7771
4.1484,3.481,2.0988,2.1559,1.5788,2.93,1.8014
4.1022,3.451,2.0357,2.1104,1.5531,2.934,1.8168
4.067,3.4341,1.9736,2.0718,1.5301,2.9377,1.8303
4.0414,3.4224,1.9225,2.0523,1.5134,2.8945,1.8425
4.0206,3.4158,1.89,2.0465,1.5012,2.7005,1.8502
4.0201,3.4104,1.8744,2.0454,1.4693,2.4413,1.8558
4.0429,3.4064,1.8631,2.0383,1.423,2.2511,1.8599
4.0977,3.406,1.8467,2.0149,1.402,2.1234,1.8793
4.1652,3.4131,1.8348,1.999,1.3946,2.0445,1.9183
4.2075,3.4282,1.8319,2.0003,1.3799,1.9905,1.9552
4.2359,3.4373,1.831,2.0013,1.3644,1.9557,1.9851
4.2486,3.4341,1.8304,1.9988,1.3466,1.9257,1.9931
4.2619,3.4255,1.831,1.9916,1.3254,1.8912,2.0177
4.2828,3.4206,1.8327,1.9777,1.3083,1.8564,2.0722
4.2976,3.4188,1.8339,1.9654,1.2959,1.8251,2.1176
4.3138,3.4049,1.8359,1.9576,1.2885,1.7819,2.1469
4.285,3.3719,1.8339,1.9519,1.2762,1.7301,2.1437
4.2118,3.3408,1.8133,1.9509,1.2516,1.6883,2.1245
4.1125,3.2691,1.7737,1.9262,1.2265,1.6524,2.1094
4.014,3.1672,1.7359,1.8982,1.2064,1.6122,2.0985
3.9883,3.0871,1.7045,1.8919,1.1899,1.5659,2.0874
4.002,3.0161,1.6654,1.8839,1.1779,1.5232,2.0814
4.0073,2.939,1.6147,1.8688,1.1746,1.4813,2.0852
3.9639,2.8351,1.5662,1.8578,1.1846,1.4399,2.091
3.8853,2.7278,1.5264,1.8556,1.2057,1.4065,2.0992
3.8163,2.6698,1.4804,1.8471,1.2228,1.3773,2.1011
3.7448,2.66,1.4344,1.8339,1.2302,1.3444,2.0945
3.6789,2.6742,1.396,1.8022,1.2338,1.317,2.0937
3.6411,2.6902,1.3647,1.7618,1.2278,1.3055,2.0962
3.6372,2.7017,1.3436,1.7375,1.2182,1.3021,2.101
3.6627,2.7217,1.3655,1.7429,1.2199,1.2963,2.0932
3.6954,2.7386,1.42,1.7662,1.2281,1.3139,2.0731
3.7192,2.7455,1.4569,1.782,1.2357,1.3485,2.0638
3.741,2.7483,1.4852,1.7888,1.243,1.3723,2.0652
3.7614,2.7441,1.5058,1.7937,1.2483,1.3896,2.0663
3.7763,2.7379,1.5222,1.8089,1.2504,1.3963,2.067
3.7921,2.7271,1.5368,1.828,1.2503,1.3936,2.0686
3.7906,2.7122,1.5379,1.8373,1.2552,1.3901,2.0677
3.7647,2.6965,1.5319,1.8396,1.2703,1.3828,2.0671
3.7159,2.6787,1.5274,1.8446,1.2796,1.3599,2.0747
3.653,2.6568,1.5199,1.846,1.2833,1.3249,2.0843
3.6011,2.6276,1.5088,1.8413,1.2908,1.2942,2.0893
3.5596,2.6031,1.4993,1.847,1.2947,1.2647,2.092
3.5226,2.5537,1.4909,1.8602,1.2975,1.2342,2.0909
3.4774,2.4907,1.4891,1.8653,1.3011,1.2156,2.053
3.4318,2.4494,1.499,1.8645,1.2972,1.2021,1.9863
3.4088,2.4578,1.5132,1.864,1.2895,1.1886,1.9305
3.3809,2.4849,1.5221,1.8601,1.2983,1.1824,1.8851
3.3349,2.4873,1.5287,1.8504,1.3176,1.1851,1.8533
3.2934,2.4916,1.5348,1.8363,1.3332,1.1924,1.8312
3.2271,2.5031,1.5392,1.8213,1.3461,1.2046,1.8223
3.1276,2.5296,1.5532,1.7943,1.357,1.2219,1.8274
2.986,2.5604,1.5791,1.76,1.368,1.2363,1.8535
2.8316,2.5891,1.6019,1.7349,1.379,1.2467,1.8803
2.72,2.6164,1.6159,1.7205,1.384,1.2543,1.8912
2.65,2.6379,1.6249,1.7035,1.3784,1.2599,1.8889
2.6118,2.6582,1.6314,1.6795,1.3633,1.2639,1.8725
2.5865,2.6537,1.6348,1.6608,1.3459,1.2812,1.8548
2.5748,2.6161,1.6348,1.6471,1.3332,1.3082,1.8418
2.5851,2.562,1.6334,1.6372,1.3303,1.3279,1.83
2.5917,2.5085,1.6512,1.63,1.3362,1.3498,1.8284
2.576,2.4651,1.6828,1.6247,1.3467,1.3732,1.8433
2.5352,2.415,1.6792,1.6001,1.3544,1.3903,1.8586
2.4809,2.3683,1.6499,1.5614,1.3537,1.3775,1.872
2.4395,2.3371,1.6285,1.539,1.3517,1.3445,1.8851
2.4029,2.3181,1.6089,1.527,1.3502,1.3272,1.8913
2.3652,2.3163,1.5959,1.5111,1.3538,1.3196,1.8936
2.3339,2.3187,1.5809,1.4686,1.3626,1.3156,1.902
2.3592,2.3276,1.5575,1.4109,1.366,1.3207,1.9135
2.4224,2.3423,1.5391,1.3689,1.3574,1.3324,1.9219
2.4627,2.3503,1.5472,1.34,1.3399,1.3408,1.9292
2.4691,2.3561,1.5748,1.3121,1.3222,1.3455,1.908
2.4594,2.3567,1.5962,1.2777,1.3025,1.3488,1.8651
2.4576,2.3572,1.6169,1.2381,1.2814,1.3497,1.829
2.4681,2.3819,1.6468,1.2017,1.2677,1.3503,1.8026
2.4886,2.4241,1.6832,1.1751,1.2578,1.3539,1.7883
2.5034,2.4539,1.7192,1.1633,1.2506,1.3518,1.7767
2.5143,2.4715,1.7406,1.1622,1.247,1.3439,1.7718
2.5094,2.4412,1.7491,1.1614,1.2495,1.3382,1.7683
2.4897,2.373,1.7694,1.1748,1.2425,1.3341,1.7645
2.4787,2.3205,1.7935,1.1969,1.218,1.331,1.7702
2.4811,2.2793,1.8065,1.2096,1.1927,1.3412,1.7883
2.4862,2.2311,1.8114,1.232,1.1724,1.3549,1.8003
2.4925,2.1682,1.8078,1.2582,1.1577,1.3634,1.7889
2.4996,2.1108,1.7957,1.2725,1.1469,1.3742,1.7518
2.4971,2.0774,1.794,1.2846,1.1536,1.3805,1.7054
2.4876,2.0606,1.8034,1.2901,1.1711,1.3896,1.6872
2.4807,2.0484,1.8067,1.302,1.1822,1.4023,1.6907
2.48,2.0608,1.8149,1.3367,1.2053,1.4115,1.6995
2.5011,2.091,1.8301,1.3796,1.2372,1.4182,1.7108
2.5266,2.1131,1.8512,1.4137,1.2605,1.4216,1.7178
2.5243,2.1301,1.8765,1.4371,1.2726,1.4225,1.7204
2.5126,2.1464,1.8769,1.4528,1.2765,1.4157,1.7098
2.4945,2.1612,1.8626,1.457,1.2793,1.4046,1.6801
2.4761,2.171,1.8557,1.4528,1.2814,1.3997,1.6597
2.4698,2.1772,1.8597,1.4497,1.2894,1.4108,1.6567
2.4642,2.1855,1.8717,1.4446,1.3017,1.4322,1.6507
2.4602,2.1867,1.8892,1.4494,1.309,1.442,1.6424
2.4582,2.1739,1.9075,1.4659,1.3128,1.4389,1.6351
2.4576,2.1606,1.9176,1.4794,1.3139,1.4307,1.6176
2.4005,2.1449,1.9249,1.4906,1.3131,1.4306,1.5927
2.3064,2.1264,1.9302,1.4988,1.3142,1.438,1.5731
2.242,2.1169,1.9341,1.5047,1.3165,1.4448,1.5589
2.21,2.1171,1.9369,1.5146,1.3261,1.4512,1.5685
2.2323,2.1202,1.939,1.5286,1.3424,1.4544,1.5903
2.2825,2.1185,1.9361,1.5402,1.3604,1.4553,1.6124
2.312,2.0966,1.924,1.5417,1.378,1.456,1.64
2.3299,2.0693,1.9096,1.5402,1.3908,1.4565,1.6601
2.3466,2.0547,1.8898,1.5376,1.3987,1.4625,1.6759
2.3552,2.0451,1.8674,1.5302,1.4088,1.4769,1.6887
2.3606,2.0381,1.8522,1.5234,1.4162,1.5024,1.7029
2.3672,2.0403,1.8316,1.5054,1.4156,1.5317,1.7181
2.3684,2.0622,1.8118,1.4866,1.4197,1.5478,1.7243
2.3621,2.0901,1.8022,1.4802,1.4271,1.5431,1.724
2.3602,2.1134,1.7953,1.4696,1.431,1.53,1.7286
2.3588,2.1303,1.7854,1.4546,1.4309,1.5175,1.7356
2.3578,2.1398,1.7733,1.4421,1.4294,1.5085,1.7383
2.3598,2.1315,1.7546,1.4315,1.4144,1.5076,1.7378
2.3603,2.1265,1.7323,1.4283,1.3911,1.5084,1.7171
2.3489,2.135,1.7211,1.4182,1.3758,1.5131,1.7128
2.3248,2.1282,1.7051,1.3839,1.3514,1.5193,1.7348
2.2871,2.1213,1.6821,1.3525,1.3205,1.5096,1.7462
2.2451,2.1233,1.6545,1.3444,1.2979,1.4955,1.7544
2.2165,2.1277,1.6237,1.3433,1.2815,1.491,1.7652
2.2167,2.1455,1.6067,1.3426,1.2678,1.4819,1.788
2.2443,2.1673,1.5944,1.3436,1.2508,1.481,1.8184
2.2671,2.184,1.5743,1.3459,1.2332,1.4918,1.8348
2.3333,2.2193,1.5638,1.3612,1.2203,1.4867,1.8434
2.4471,2.2687,1.5764,1.383,1.211,1.47,1.8554
2.5438,2.309,1.5855,1.3853,1.2042,1.4708,1.8898
2.6158,2.3385,1.5816,1.3809,1.1937,1.4843,1.9415
2.6675,2.3668,1.5828,1.3839,1.1879,1.4956,1.9803
2.7022,2.3875,1.589,1.3876,1.1891,1.4938,2.0125
2.7281,2.3956,1.6001,1.3903,1.1864,1.4811,2.039
2.7531,2.3989,1.5931,1.3907,1.188,1.4762,2.0574
2.7736,2.3986,1.5678,1.3864,1.1799,1.4769,2.0541
2.7506,2.3984,1.5494,1.3908,1.1649,1.4832,2.0362
2.6935,2.3992,1.536,1.406,1.1687,1.4989,2.0156
2.6469,2.3962,1.5205,1.4171,1.1804,1.5144,1.9875
2.6162,2.385,1.4975,1.4208,1.189,1.5231,1.9659
2.6747,2.3687,1.4794,1.4534,1.1952,1.5238,1.9568
2.7976,2.3533,1.4706,1.5216,1.1926,1.5159,1.9502
2.9337,2.3641,1.4714,1.5812,1.1853,1.4925,1.9387
3.0722,2.3899,1.4791,1.6246,1.1819,1.4606,1.9225
3.1712,2.391,1.4791,1.6525,1.1738,1.4374,1.9107
3.2507,2.3777,1.4776,1.6679,1.1785,1.422,1.8976
3.3135,2.3643,1.4823,1.6742,1.1979,1.4108,1.8846
3.3587,2.3509,1.4994,1.6787,1.2187,1.4026,1.8984
3.3916,2.3475,1.5243,1.6858,1.2405,1.4042,1.9302
3.4234,2.3514,1.5424,1.6897,1.258,1.4172,1.9586
3.4586,2.3386,1.5556,1.6875,1.2724,1.4267,1.9885
3.4867,2.3146,1.5652,1.6921,1.2813,1.4248,1.9965
3.5053,2.2816,1.5722,1.7066,1.2845,1.4189,1.9802
3.5117,2.2257,1.5786,1.7085,1.2851,1.4146,1.9694
3.5109,2.1686,1.5846,1.6948,1.284,1.4189,1.9723
3.5152,2.1239,1.5877,1.6798,1.2815,1.428,1.9841
3.5104,2.0806,1.5952,1.6789,1.294,1.4331,1.9926
3.4911,2.0404,1.6072,1.6933,1.3175,1.4294,2.004
3.4813,2.0066,1.6172,1.7123,1.3331,1.4193,2.0257
3.4414,1.9492,1.6056,1.72,1.3383,1.4118,2.0415
3.3723,1.8676,1.5638,1.7171,1.342,1.4049,2.048
3.322,1.8179,1.5201,1.7163,1.3509,1.3905,2.0335
3.2912,1.8019,1.4869,1.7106,1.359,1.3705,2.0005
3.2748,1.7804,1.4549,1.7015,1.3602,1.3592,1.9798
3.2654,1.7833,1.4254,1.6936,1.358,1.3541,1.9681
3.256,1.8138,1.3975,1.6977,1.3595,1.3472,1.9638
3.2419,1.8394,1.3756,1.7131,1.3575,1.3357,1.9808
3.2296,1.8613,1.3768,1.7244,1.3513,1.3225,2.0129
3.22,1.8817,1.4015,1.7252,1.3419,1.3078,2.0403
3.2123,1.9168,1.4311,1.7196,1.3219,1.2852,2.0593
3.2061,1.955,1.4526,1.7106,1.304,1.2687,2.0811
3.2068,1.9798,1.4683,1.7027,1.2977,1.2703,2.1356
3.1426,1.9989,1.4755,1.6685,1.3013,1.2781,2.205
3.0188,2.0139,1.4807,1.6039,1.3119,1.2821,2.2556
2.8709,1.9976,1.4772,1.5625,1.3213,1.2834,2.2925
2.7144,1.9586,1.4631,1.5497,1.3327,1.286,2.3193
2.606,1.9302,1.4543,1.5554,1.3503,1.2896,2.3353
2.5148,1.9107,1.4449,1.5756,1.3553,1.2905,2.3434
2.4661,1.8965,1.4335,1.5955,1.3481,1.2895,2.3448
2.4633,1.8861,1.4111,1.6048,1.3396,1.2872,2.3264
2.4613,1.8704,1.3807,1.6063,1.3286,1.2699,2.298
2.4466,1.8509,1.3569,1.6088,1.3254,1.2361,2.2803
2.4191,1.8482,1.3379,1.6119,1.3279,1.2021,2.2625
2.3999,1.8577,1.3241,1.6034,1.3313,1.1736,2.239
2.3895,1.8658,1.3205,1.5906,1.3354,1.1527,2.2189
2.3847,1.8816,1.3243,1.5853,1.3383,1.147,2.2072
2.3847,1.9188,1.3318,1.5868,1.3421,1.1349,2.2016
2.3848,1.9647,1.3481,1.5985,1.3463,1.1107,2.1946
2.3821,1.993,1.3537,1.6016,1.3348,1.0951,2.1816
2.3775,2.0064,1.3453,1.5893,1.3101,1.0775,2.1592
2.4146,2.0162,1.3376,1.5762,1.2904,1.0565,2.1418
2.509,2.0265,1.3288,1.5667,1.276,1.0433,2.1353
2.6113,2.0461,1.3348,1.5638,1.2585,1.0378,2.1264
2.6925,2.0563,1.3534,1.5645,1.237,1.0296,2.117
2.7457,2.0473,1.4015,1.565,1.2195,1.0194,2.1091
2.7959,2.0366,1.4712,1.5653,1.2121,1.0054,2.1023
2.8478,2.0021,1.522,1.5656,1.2172,0.98862,2.0974
2.8856,1.9504,1.559,1.5546,1.2244,0.98088,2.0907
2.9257,1.9263,1.5923,1.5341,1.228,0.97524,2.0669
2.9543,1.918,1.6126,1.5206,1.2305,0.96892,2.0293
2.9667,1.913,1.6053,1.5078,1.2307,0.96432,1.9975
2.9806,1.8967,1.5933,1.4999,1.2238,0.96097,1.9743
3.004,1.87,1.6017,1.5014,1.2222,0.95853,1.9484
3.0154,1.8505,1.6197,1.4981,1.2348,0.9475,1.8764
3.0069,1.8364,1.6327,1.4886,1.2422,0.93023,1.7798
3.0029,1.8331,1.6371,1.4802,1.2392,0.92002,1.7095
3,1.8353,1.6338,1.4667,1.2353,0.91496,1.6582
2.9993,1.8381,1.6301,1.4448,1.2253,0.91128,1.6264
3.0002,1.8492,1.6274,1.4164,1.2055,0.90622,1.6087
3.0015,1.8696,1.6293,1.3878,1.1836,0.9094,1.5958
2.9859,1.8878,1.6346,1.3795,1.1639,0.92095,1.5809
2.9587,1.9096,1.6436,1.3874,1.1457,0.93159,1.566
2.9426,1.9342,1.6552,1.4006,1.1285,0.94154,1.5522
2.9301,1.952,1.6649,1.4161,1.1141,0.96722,1.5323
2.9203,1.9597,1.677,1.4259,1.1036,1.0043,1.5121
2.9132,1.9588,1.6845,1.4317,1.0959,1.0389,1.5016
2.9087,1.9571,1.6812,1.4299,1.0922,1.0716,1.504
2.9098,1.9727,1.675,1.4211,1.1064,1.0898,1.5071
2.9142,1.9841,1.6666,1.407,1.1367,1.0974,1.492
2.9116,1.9723,1.6566,1.3857,1.1641,1.1049,1.4796
2.9097,1.9604,1.648,1.3654,1.1857,1.1104,1.4765
2.9142,1.9517,1.6456,1.3506,1.2032,1.1143,1.4685
2.8754,1.9497,1.6503,1.335,1.2159,1.1191,1.4376
2.778,1.9494,1.6662,1.3186,1.2234,1.1226,1.3901
2.6583,1.937,1.6791,1.2999,1.2272,1.1232,1.3554
2.554,1.9246,1.6785,1.2863,1.2317,1.1274,1.3493
2.4817,1.9212,1.6454,1.2815,1.235,1.1342,1.3654
2.405,1.9221,1.5901,1.2763,1.2304,1.1373,1.3741
2.329,1.9249,1.5556,1.2709,1.2165,1.1377,1.3712
2.2967,1.9419,1.5473,1.2669,1.2009,1.1361,1.3691
2.3017,1.9542,1.5427,1.2657,1.1878,1.1369,1.3722
2.3445,1.9472,1.5283,1.2631,1.202,1.1374,1.3761
2.4068,1.9421,1.5234,1.2646,1.2396,1.134,1.3804
2.4522,1.9427,1.5212,1.2639,1.2686,1.1297,1.3835
2.4752,1.9432,1.5038,1.2567,1.2766,1.1207,1.3858
2.4811,1.9381,1.4854,1.2582,1.2642,1.1084,1.3875
2.4845,1.9333,1.4779,1.266,1.2517,1.1052,1.3887
2.5132,1.9754,1.4739,1.2717,1.2444,1.1087,1.388
2.5603,2.0519,1.4943,1.2758,1.2391,1.1131,1.386
2.6002,2.1186,1.5298,1.2789,1.2369,1.1182,1.3799
2.6408,2.1738,1.5646,1.2811,1.237,1.1238,1.3723
2.6743,2.2066,1.6001,1.3014,1.2389,1.1241,1.3668
2.6902,2.2277,1.6248,1.3227,1.2436,1.1167,1.3628
2.6892,2.2384,1.6415,1.3383,1.2553,1.1094,1.3661
2.6822,2.2406,1.6635,1.3619,1.2704,1.104,1.3731
